MSNA_time,BP,ECG,MSNA_v,MSNA_filt,MSNA_v_zeroed,MSNA_vjust
345,-9.375e-5,0.1169277,0.1137929,-4.801635858597187e-4,-1.5549355429133333e-4,0
345.04,-8.59375e-5,0.1956777,0.1114273,-7.791558851454098e-4,-0.0020096024334676785,0
345.08,-8.984375e-5,0.07627344,0.1145153,-7.423201483847268e-4,4.1058569793170146e-4,0
345.12,-9.375e-5,-0.1537129,0.1127482,-9.922806441248374e-4,-9.74662329162943e-4,0
345.16,-9.375e-5,-0.152168,0.11193,-0.001511525855916133,-0.0016163020703346446,0
345.2,-8.984375e-5,-0.1234062,0.1110553,-0.0017121264241926957,-0.002302482621226201,0
345.24,-9.765625e-5,-0.08639648,0.1123986,-0.001509262877725937,-0.0012505247570889057,0
345.28,-7.8125e-5,-0.06491992,0.1127544,-0.0012965894949904097,-9.727818547640602e-4,0
345.32,-9.375e-5,-0.06029297,0.1133277,-0.0016052811852984353,-5.2471278005964e-4,0
345.36,-7.8125e-5,-0.04192578,0.1109893,-0.002654276717709771,-0.0023589611814192712,0
345.4,-8.984375e-5,-0.03241992,0.1085787,-0.003965622392170598,-0.00425017357430728,0
345.44,-8.984375e-5,-0.03504883,0.1071879,-0.004805793333749019,-0.0053427224682257865,0
345.48,-9.375e-5,-0.02587305,0.1061788,-0.004460965239001293,-0.0061369328587030664,0
345.52,-8.203125e-5,0.03476953,0.1111654,-0.002893239179289381,-0.0022325918433053933,0
345.56,-8.59375e-5,0.006818359,0.114236,-0.0015739443314522297,1.6960673903408728e-4,0
345.6,-1.015625e-4,-0.04503906,0.1124183,-0.0014662782996134405,-0.00125969155692147,0
345.64,-8.59375e-5,0.1921211,0.1122396,-0.0021391098879806514,-0.0014045157356605013,0
345.68,-9.375e-5,0.6128516,0.1100279,-0.0032093523497100976,-0.0031430579484342442,0
345.72,-8.984375e-5,-0.1684336,0.1073357,-0.0039664456345407445,-0.005258719711701207,0
345.76,-7.421875e-5,-0.1504707,0.1091686,-0.003702699346221003,-0.0038283699574119135,0
345.8,-7.8125e-5,-0.07906641,0.1114481,-0.003066096607119767,-0.0020485729428774344,0
345.84,-7.03125e-5,0.0282168,0.1107879,-0.0029270637120388135,-0.0025732808831682853,0
345.88,-6.640625e-5,0.1736777,0.1096632,-0.0029919518048201325,-0.003462477349829623,0
345.92,-7.421875e-5,0.2317773,0.1093896,-0.0022889255974361585,-0.003685115539401219,0
345.96,-6.640625e-5,0.03941406,0.1134781,-4.7088521921313656e-4,-4.892555730899153e-4,0
346,-7.8125e-5,-0.1387109,0.1166582,0.001722557261332764,0.0019945094335557623,0
346.04,-8.203125e-5,-0.1204258,0.1191498,0.003540320793246563,0.003938932681226263,0
346.08,-7.03125e-5,-0.08405078,0.120011,0.004929822515760509,0.004606045738725337,0
346.12,-5.859375e-5,-0.07508789,0.1236973,0.005518692036527328,0.0074882424198141504,0
346.16,-6.640625e-5,-0.05167383,0.1199469,0.004776522978861198,0.004542623448853305,0
346.2,-6.25e-5,-0.05783789,0.1186841,0.0032070706064121633,0.003547540467926916,0
346.24,-5.859375e-5,-0.051125,0.1158273,0.0013262093490022514,0.0013036163585291615,0
346.28,-5.46875e-5,-0.04605469,0.1125089,-4.677931487710785e-4,-0.0013019109579072048,0
346.32,-6.640625e-5,-0.03600781,0.1101058,-0.0011010745938136411,-0.003190217858343618,0
346.36,-7.03125e-5,-0.007199219,0.1143371,-2.9122078917408136e-4,1.2111474916326473e-4,0
346.4,-5.078125e-5,0.01258789,0.1162319,6.266435480853126e-4,0.0016010823543039076,0
346.44,-7.421875e-5,-0.07597656,0.1155812,6.877190354716202e-4,0.0010861013104212587,0
346.48,-6.640625e-5,-0.006164063,0.1137732,4.0562244951325226e-4,-3.3581750054172013e-4,0
346.52,-7.03125e-5,0.6758926,0.1137069,7.790793335165971e-4,-3.9261847506314677e-4,0
346.56,-7.03125e-5,-0.192041,0.1176945,0.001738359843982322,0.002728026837444948,0
346.6,-5.46875e-5,-0.1664707,0.117539,0.002257136987748674,0.0026016783675212535,0
346.64,-6.25e-5,-0.1000215,0.1167027,0.0022356225284011857,0.0019421194019646167,0
346.68,-6.25e-5,-0.005648438,0.1164197,0.0023514263648073473,0.0017165520737044673,0.005399828975433459
346.72,-6.640625e-5,0.150541,0.1169188,0.0031007031822364293,0.002104277669619616,0.005787554571348608
346.76,-5.46875e-5,0.2348281,0.1209063,0.004133419108796359,0.00522659639763794,0.008909873299366931
346.8,-4.6875e-5,0.07476953,0.1194593,0.004781802262803425,0.004090097025453895,0.007773373927182886
346.84,-5.859375e-5,-0.1736504,0.1193505,0.005772296747426036,0.00400314502967417,0.007686421931403162
346.88,-4.296875e-5,-0.1901328,0.1240564,0.007697747403591934,0.007690660094069224,0.011373936995798216
346.92,-5.46875e-5,-0.1523008,0.1284904,0.009092454571847798,0.011166270355810866,0.014849547257539857
346.96,-4.296875e-5,-0.1132617,0.1255117,0.008677637004650447,0.008833457378534137,0.012516734280263129
347,-5.859375e-5,-0.09504492,0.1238998,0.006824835348676674,0.007573357982066755,0.011256634883795746
347.04,-5.078125e-5,-0.09191602,0.1183545,0.004448755486105413,0.0032313960373070425,0.006914672939036034
347.08,-5.46875e-5,-0.0775,0.1173837,0.0022570521017213027,0.0024755068727366062,0.006158783774465598
347.12,-5.46875e-5,-0.06854688,0.1143954,1.8679945061993663e-4,1.3866155809285748e-4,0.003821938459821849
347.16,-4.6875e-5,-0.05874609,0.1116603,-0.0018934181220327429,-0.00199969985917994,0.0016835770425490514
347.2,-3.90625e-5,-0.03979297,0.107681,-0.0032108088168237648,-0.005113599903486451,-0.00143032300175746
347.24,-4.296875e-5,0.02851758,0.1095003,-0.002945595361048674,-0.0036832769017289915,0
347.28,-3.125e-5,-0.06532617,0.1132655,-0.0018195977376305459,-7.283096515463193e-4,0
347.32,-2.34375e-5,-0.06196485,0.1152135,-0.0017882402572719908,8.021936660759031e-4,0
347.36,-3.515625e-5,0.8864453,0.1089384,-0.003270303707910544,-0.004112566800828255,0
347.4,-4.296875e-5,-0.1539512,0.1069256,-0.004460833403738899,-0.005687121369996722,0
347.44,-3.90625e-5,-0.177207,0.1080842,-0.004241437950485833,-0.004776782663242104,0
347.48,-4.6875e-5,-0.1294941,0.1098224,-0.0029427666328045907,-0.003412899056695631,0
347.52,-2.34375e-5,-0.04234375,0.1138192,-0.0013455418639474292,-2.7922950095931557e-4,0
347.56,-2.34375e-5,0.08791407,0.114672,-3.979624981943903e-4,3.900810839700463e-4,0
347.6,-2.34375e-5,0.2092207,0.1136696,-1.3543010634438265e-4,-3.9468061906331576e-4,0
347.64,-2.34375e-5,0.1143379,0.113779,2.1436159826369376e-4,-3.0805895298761937e-4,0
347.68,-3.515625e-5,-0.1373965,0.1160142,7.32043096601882e-4,0.001444748337536651,0
347.72,-3.90625e-5,-0.1678125,0.1160223,7.227136150927967e-4,0.0014521490381634004,0
347.76,-1.953125e-5,-0.1199453,0.1137919,1.6236961401822636e-4,-2.94791175221477e-4,0
347.8,-1.953125e-5,-0.09501562,0.1129883,-1.0370097738467568e-4,-9.234304680776028e-4,0
347.84,-3.90625e-5,-0.07408984,0.1161534,-2.8435127133480143e-4,0.0015585116461878108,0
347.88,-3.125e-5,-0.06560937,0.1111909,-8.62996153074028e-4,-0.0023298362351607325,0
347.92,-3.515625e-5,-0.067375,0.1122826,-8.863638204743959e-4,-0.0014731782914141436,0
347.96,-3.125e-5,-0.05995898,0.1138644,5.855048191874202e-6,-2.326051863809428e-4,0
348,-3.515625e-5,-0.06100976,0.1168603,8.364886174225338e-4,0.0021163242072696833,0
348.04,-3.125e-5,-0.04564258,0.1157827,7.807860738948813e-4,0.0012727167512978745,0
348.08,-3.125e-5,0.01512109,0.1133935,2.6396031250606854e-4,-5.987416803995689e-4,0
348.12,-3.125e-5,-0.03636914,0.1139261,2.2436863216935643e-4,-1.8014352337372992e-4,0
348.16,-2.34375e-5,-0.07399219,0.1158899,3.820587342898763e-4,0.0013602224465226822,0
348.2,-3.125e-5,0.3350332,0.1138118,1.948693100705475e-4,-2.672992807005809e-4,0
348.24,-3.515625e-5,0.4182481,0.1137517,1.0955163728945383e-4,-3.1312422115750335e-4,0
348.28,-3.125e-5,-0.2266855,0.1150305,2.926866846416258e-4,6.904515108218499e-4,0
348.32,-3.90625e-5,-0.1896113,0.1148244,2.7348369324735203e-4,5.302491455656361e-4,0
348.36,-2.734375e-5,-0.1166914,0.1143807,-1.2281855994670068e-4,1.8389603658264876e-4,0
348.4,-3.515625e-5,0.003361328,0.11251,-5.510107126616261e-4,-0.0012809322689724745,0
348.44,-3.125e-5,0.161541,0.1121492,-1.8918572116796798e-4,-0.0015624803493263662,0
348.48,-2.734375e-5,0.1903652,0.1170062,7.905398155700116e-4,0.0022455155766996767,0
348.52,-3.125e-5,-0.08298828,0.1152635,0.0014321804236455394,8.809211897314957e-4,0
348.56,-2.34375e-5,-0.2303691,0.115529,0.0022267996750506116,0.001090523532568319,0
348.6,-2.734375e-5,-0.2029551,0.119792,0.0034406980086993683,0.0044335992110280135,0
348.64,-1.953125e-5,-0.1551113,0.1188893,0.004403414782156971,0.003728421071872627,0
348.68,-2.34375e-5,-0.1286328,0.1208685,0.005189451874727557,0.005282708659536711,0
348.72,-1.953125e-5,-0.1103457,0.1233397,0.005221512553420721,0.007223467574403449,0
348.76,-3.515625e-5,-0.1005273,0.1185211,0.0038421800342575267,0.0034515114704059976,0
348.8,-2.34375e-5,-0.08796484,0.1156429,0.002162019285051566,0.0012010153861918896,0
348.84,-3.515625e-5,-0.07612695,0.1144157,0.0013900686912454005,2.447878059895184e-4,0
348.88,-1.953125e-5,-0.07194922,0.1177037,9.477996104280689e-4,0.0028276811094847657,0
348.92,-3.125e-5,-0.04877539,0.1132227,-1.8204149641378017e-4,-6.784390326401151e-4,0
348.96,-3.515625e-5,0.01268359,0.111614,-0.0014090906809182794,-0.0019333140227598916,0
349,-3.125e-5,-0.07949609,0.1108222,-0.001897179070643331,-0.0025481957226952973,0
349.04,-3.515625e-5,-0.09349805,0.1119751,-0.0017665214094130615,-0.0016391944957717753,0
349.08,-3.125e-5,0.798916,0.1115903,-0.0011920732704178015,-0.001935724713870641,0
349.12,-3.515625e-5,-0.1747598,0.1140187,-1.90802034629287e-4,-2.753181178283e-5,0
349.16,-2.34375e-5,-0.1945273,0.1158555,7.444767482529301e-4,0.0014169516916981563,0
349.2,-2.734375e-5,-0.1196328,0.1149887,0.0013726378854430517,7.425362901592119e-4,0
349.24,-3.90625e-5,-0.02770117,0.1170126,0.0019926672690660442,0.0023340126458261676,0
349.28,-1.953125e-5,0.1209434,0.1178121,0.0022708650412930124,0.0029661543121745474,0
349.32,-2.34375e-5,0.2480566,0.1155201,0.00220385963904544,0.0011755998279873424,0
349.36,-3.515625e-5,0.1561191,0.117078,0.0024163527154652913,0.0024028409968983072,0
349.4,-2.34375e-5,-0.1428066,0.1175857,0.0027970387830097347,0.0028072989476088336,0
349.44,-3.125e-5,-0.1931973,0.1182445,0.0028717704691040517,0.0033306347095614325,0
349.48,-3.515625e-5,-0.1577324,0.1185754,0.0020289855916420484,0.003597483466793353,0
349.52,-2.34375e-5,-0.113627,0.112519,4.7098854669534984e-4,-0.001141562240001326,0
349.56,-3.125e-5,-0.09280469,0.1122979,-3.3247280031431845e-4,-0.0013069916039152132,0
349.6,-1.953125e-5,-0.08929883,0.1144245,-2.3753428127571948e-4,3.6753548587810126e-4,0
349.64,-2.734375e-5,-0.08518164,0.113917,-2.8146426384899364e-4,-2.2526903561073988e-5,0
349.68,-3.515625e-5,-0.08327344,0.1144271,-0.0010909590513626614,3.850174597421351e-4,0
349.72,-4.6875e-5,-0.07185351,0.109789,-0.0026140859105346337,-0.0032426145976831625,0
349.76,-5.46875e-5,-0.06123437,0.1086922,-0.0040390695777565684,-0.004095034103803721,0
349.8,-5.078125e-5,-0.03030469,0.1065312,-0.004684997455738451,-0.005782236411238695,0
349.84,-4.6875e-5,0.004412109,0.1093882,-0.004754977681520519,-0.0035371673829577323,0
349.88,-3.515625e-5,-0.06699414,0.1079069,-0.005064857517701888,-0.0046930822819221925,0
349.92,-3.90625e-5,-0.04474219,0.1069282,-0.005763909892053588,-0.005455792830372924,0
349.96,-5.078125e-5,0.8869473,0.1047587,-0.006119829592283491,-0.0071527320763700095,0
350,-4.296875e-5,-0.2129629,0.1075483,-0.005871327913968355,-0.0049637831340173305,0
350.04,-4.296875e-5,-0.2127734,0.1064706,-0.005398999577418513,-0.0058068664738990545,0
350.08,-4.6875e-5,-0.1495137,0.1083984,-0.004795785799644778,-0.004295110384099984,0
350.12,-5.46875e-5,-0.05948438,0.1091393,-0.00426058426160412,-0.0037143428130240867,0
350.16,-5.46875e-5,0.08834961,0.1083883,-0.003813928423717428,-0.004303535668336771,0
350.2,-6.25e-5,0.1988457,0.1109455,-0.003330655544931042,-0.0023003908318991015,0
350.24,-5.46875e-5,0.04610742,0.1104344,-0.003312087670686455,-0.0027025893484046008,0
350.28,-5.46875e-5,-0.1716055,0.108419,-0.0035647723902213655,-0.00428430781910869,0
350.32,-5.859375e-5,-0.1771777,0.1097762,-0.0034307969663849728,-0.0032232078649989783,0
350.36,-6.25e-5,-0.1438574,0.1103294,-0.0031065224995441296,-0.002792804324344851,0
350.4,-6.25e-5,-0.1120117,0.1097366,-0.0026854854798779907,-0.003261094011956153,0
350.44,-6.640625e-5,-0.09079687,0.112278,-0.0021162598961503914,-0.0012732652196296723,0
350.48,-5.078125e-5,-0.07782617,0.1118189,-0.0018152535819284826,-0.0016374749043191765,0
350.52,-6.25e-5,-0.06698438,0.1103529,-0.001339175797308708,-0.0027911666737300026,0
350.56,-6.25e-5,-0.05710351,0.1147572,-2.4633851388504376e-4,6.559309182273329e-4,0
350.6,-4.6875e-5,-0.05027344,0.1161266,3.335105684206548e-4,0.0017243314580368224,0
350.64,-5.078125e-5,-0.04430274,0.1142669,-4.157319804754465e-4,2.6198676711735187e-4,0
350.68,-5.46875e-5,-0.03238867,0.1105555,-0.0016754771159882408,-0.0026517070878676876,0
350.72,-6.25e-5,0.03026562,0.1105784,-0.0023863815998595673,-0.0026388187464966894,0
350.76,-6.640625e-5,-0.0644043,0.1105381,-0.002453994810705455,-0.0026758842564266814,0
350.8,-6.25e-5,-0.0947168,0.1118124,-0.0023845728442143956,-0.0016829689390520394,0
350.84,-5.859375e-5,0.9073848,0.1105663,-0.0024767587266951527,-0.0026658471408172444,0
350.88,-6.640625e-5,-0.1496289,0.1098281,-0.0022155041866725065,-0.0032510466224958015,0
350.92,-5.078125e-5,-0.2150078,0.1133759,-0.0014411650642729256,-4.773277323003926e-4,0
350.96,-6.25e-5,-0.1599785,0.113728,-0.0011272237791499543,-2.085223413373003e-4,0
351,-6.25e-5,-0.07400781,0.1113771,-0.0013870029143787505,-0.002058402267757052,0
351.04,-5.46875e-5,0.07344141,0.1106775,-9.41949286609274e-4,-0.0026142932860897233,0.0010384784311951952
351.08,-6.640625e-5,0.2143145,0.1153208,6.445647363144062e-4,0.0010172488723289078,0.004670020589613826
351.12,-6.640625e-5,0.1299375,0.1164132,0.0027251206456250575,0.0018657024150806744,0.005518474132365593
351.16,-7.03125e-5,-0.1346484,0.1198384,0.0052614488602781605,0.004542934610329911,0.00819570632761483
351.2,-7.421875e-5,-0.1765098,0.1246547,0.0081164647599288,0.00831124951807824,0.011964021235363158
351.24,-6.25e-5,-0.1445625,0.1289118,0.010146513136153995,0.011642567532728753,0.015295339250013671
351.28,-6.25e-5,-0.1092305,0.1280295,0.010493899959040398,0.010947384538117534,0.014600156255402452
351.32,-7.03125e-5,-0.08401563,0.1256151,0.009702220082906178,0.009053047187079033,0.01270581890436395
351.36,-7.8125e-5,-0.07301172,0.1249534,0.00862032026099019,0.008533932366922852,0.01218670408420777
351.4,-5.859375e-5,-0.06701172,0.1234915,0.007232007582068765,0.007388956366267756,0.011041728083552674
351.44,-5.859375e-5,-0.05934375,0.1200198,0.0056424639423037675,0.004669835544197025,0.008322607261481943
351.48,-4.296875e-5,-0.05148242,0.1194612,0.00426559477275936,0.004234784154040982,0.007887555871325901
351.52,-6.640625e-5,-0.04146484,0.1183907,0.002754743708152775,0.003399166556049841,0.00705193827333476
351.56,-5.078125e-5,-0.04154492,0.1145854,8.273143457834588e-4,4.205080593624233e-4,0.004073279776647342
351.6,-5.859375e-5,-0.02577539,0.1113814,-6.781959094139619e-4,-0.0020867759712280844,0.001565995746056834
351.64,-6.25e-5,0.0378418,0.1126426,-0.0012191919363159038,-0.001094498086312383,0.0025582736309725353
351.68,-6.640625e-5,-0.06203321,0.1137138,-0.001809660364156753,-2.513179300268804e-4,0.003401453787258038
351.72,-6.25e-5,-0.08976563,0.1093697,-0.003099151661853272,-0.0036527717172849185,0
351.76,-8.59375e-5,0.8695625,0.1078576,-0.004134697875382512,-0.004835037822320618,0
351.8,-7.421875e-5,-0.09998632,0.1074781,-0.004012182140639993,-0.005130318442091947,0
351.84,-7.03125e-5,-0.2119609,0.110046,-0.0026360262697970433,-0.003116192449963485,0
351.88,-5.46875e-5,-0.1566777,0.1147811,-9.48414378310626e-4,5.96125642531812e-4,0
351.92,-7.03125e-5,-0.06800586,0.1142543,-6.0584140850778965e-5,1.8418086928092214e-4,0
351.96,-5.859375e-5,0.0717793,0.1140106,3.1669541006982627e-4,-5.83674461868327e-6,0
352,-6.640625e-5,0.2126035,0.1158546,5.16078431004239e-4,0.0014405156363630812,0
352.04,-6.640625e-5,0.1487031,0.1140924,2.969816013566609e-4,6.0501267148045665e-5,0
352.08,-6.25e-5,-0.135416,0.1145113,-2.765192141107945e-4,3.900757054447987e-4,0
352.12,-5.078125e-5,-0.1999414,0.1117673,-9.110241466927389e-4,-0.001759417234257271,0
352.16,-5.46875e-5,-0.1646875,0.1132671,-0.0014450751927000726,-5.828332378100767e-4,0
352.2,-3.90625e-5,-0.125877,0.111579,-0.0022678981843898254,-0.0019050656441785365,0
352.24,-5.859375e-5,-0.1015078,0.109061,-0.0032471133446866367,-0.003878087110361812,0
352.28,-4.296875e-5,-0.09456446,0.1077369,-0.003282744427683878,-0.004915924096220927,0
352.32,-4.6875e-5,-0.08571485,0.1116169,-0.00200288864468524,-0.0018754849328949236,0
352.36,-6.640625e-5,-0.07920312,0.1143284,-3.872144837949379e-4,2.487700277928755e-4,0
352.4,-6.640625e-5,-0.07075586,0.1149852,8.582552995102294e-4,7.625592590024537e-4,0
352.44,-6.640625e-5,-0.05760156,0.1184175,0.001263288931054114,0.003451947902702051,0
352.48,-7.03125e-5,-0.045875,0.1147807,1.8825209323783903e-4,6.01013920397124e-4,0
352.52,-4.296875e-5,-0.04225195,0.1108058,-0.0014979194258632734,-0.0025148330540963014,0
352.56,-5.859375e-5,0.02933398,0.1099507,-0.002372068557463808,-0.0031857306344436685,0
352.6,-5.078125e-5,-0.02296875,0.111096,-0.002333680132855079,-0.0022891874654329147,0
352.64,-5.46875e-5,-0.05633203,0.112029,-0.002109757597264871,-0.0015594097733951894,0
352.68,-5.078125e-5,0.1790586,0.1123916,-0.0024617114239231415,-0.0012769665188893241,0
352.72,-5.859375e-5,0.5949121,0.1083657,-0.003166110878983075,-0.004434497772731892,0
352.76,-4.6875e-5,-0.1918887,0.1095023,-0.0031723406322987226,-0.0035462835593867803,0
352.8,-6.640625e-5,-0.1649688,0.1124537,-0.0028862709866451543,-0.0012361616309940454,0
352.84,-5.078125e-5,-0.09300196,0.1094686,-0.003192909861386791,-0.003579353639829426,0
352.88,-4.6875e-5,0.01356641,0.1098582,-0.0037048631616270634,-0.0032779698827807603,0
352.92,-5.078125e-5,0.1882363,0.1090181,-0.004227541839152088,-0.003940961302490085,0
352.96,-4.6875e-5,0.2582344,0.107403,-0.004629620408713711,-0.005212031846454134,0
353,-5.078125e-5,0.007345703,0.1073617,-0.004180265545300821,-0.005250357191486271,0
353.04,-6.640625e-5,-0.1931894,0.1109739,-0.002779929417622024,-0.0024258429947441023,0
353.08,-5.078125e-5,-0.1751348,0.11272,-0.0011293086071430414,-0.001064389373412871,0
353.12,-3.90625e-5,-0.1337598,0.116375,-1.339274952247678e-4,0.0017931209206523406,0
353.16,-5.078125e-5,-0.09798243,0.1128257,-6.7628499908022725e-6,-9.959251900737106e-4,0
353.2,-3.90625e-5,-0.09087695,0.1141659,1.7373268114702963e-4,4.733566012557024e-5,0
353.24,-5.078125e-5,-0.08787305,0.1156655,5.022457419309355e-4,0.0012155441228115483,0
353.28,-4.6875e-5,-0.08280859,0.1152126,2.258026707776877e-4,8.535454426109613e-4,0
353.32,-4.296875e-5,-0.07147265,0.113055,-5.688888945538493e-4,-8.444881512858293e-4,0
353.36,-4.6875e-5,-0.06730078,0.1107597,-7.98310173434329e-4,-0.002650586458182358,0
353.4,-5.46875e-5,-0.05780664,0.1142345,2.71675175980991e-4,6.558851791454382e-5,0
353.44,-3.515625e-5,-0.04772265,0.1169611,0.0019231679477236983,0.0021953233467558093,0
353.48,-5.46875e-5,-0.01743555,0.1184796,0.003356975267027978,0.0033784777710646444,0
353.52,-4.6875e-5,0.02628516,0.1201699,0.004420120507803123,0.004696825183377626,0
353.56,-2.734375e-5,-0.06567383,0.1220226,0.004592276806463137,0.006143205919936427,0
353.6,-3.125e-5,-0.08478711,0.1192526,0.0032856245250412566,0.003967214460644721,0
353.64,-3.90625e-5,0.9170293,0.1153999,9.092631348725753e-4,9.432128425528034e-4,0
353.68,-3.515625e-5,-0.1620352,0.1109282,-0.0013886454164069573,-0.002565821405684906,0
353.72,-3.125e-5,-0.1880215,0.1093922,-0.0025384227219676842,-0.0037742146836472847,0
353.76,-3.90625e-5,-0.1280703,0.1100536,-0.0020970729821083735,-0.003260848560851555,0
353.8,-4.296875e-5,-0.04636914,0.1143771,-7.131864582654359e-4,1.224121054068755e-4,0.0033832606662584307
353.84,-4.6875e-5,0.1011309,0.1123806,0.001423926694390375,-0.00144801972924704,0.0018128288316045151
353.88,-3.125e-5,0.2474395,0.1206579,0.004913523224504456,0.005034079984748343,0.008294928545599899
353.92,-3.515625e-5,0.1602813,0.1255338,0.008930862608506333,0.008850905804289327,0.012111754365140882
353.96,-2.734375e-5,-0.1347969,0.133529,0.011304057407126363,0.01511408403403583,0.018374932594887386
354,-2.734375e-5,-0.189541,0.1290792,0.010402533283715288,0.011625069432723019,0.014885917993574574
354.04,-3.125e-5,-0.1548555,0.1220997,0.0074006938591013195,0.00615507349071946,0.009415922051571015
354.08,-2.734375e-5,-0.1174141,0.1180433,0.004935640048986743,0.0029772196870732877,0.006238068247924843
354.12,-1.953125e-5,-0.09408594,0.1185555,0.003878789334824182,0.003380774013590764,0.006641622574442319
354.16,-2.734375e-5,-0.08664062,0.1178905,0.0037479555477399396,0.0028621550353089666,0.006123003596160522
354.2,-7.8125e-6,-0.08123047,0.1191628,0.004174527801009187,0.003862473176242101,0
354.24,-3.125e-5,-0.07207812,0.1209253,0.004627836727469105,0.005247627487728116,0
354.28,-1.953125e-5,-0.06296289,0.1211599,0.004155177479445278,0.005436019337690817,0
354.32,-2.34375e-5,-0.05660547,0.1176212,0.0024187728950051503,0.0026676999098232735,0
354.36,-2.34375e-5,-0.05148633,0.11321,3.5352631073154087e-4,-7.840769541121082e-4,0
354.4,-2.34375e-5,-0.04241601,0.1121095,-9.020349037477408e-4,-0.0016410007811745774,0
354.44,-1.953125e-5,-0.03032422,0.1136097,-0.0016858664979473076,-4.597156662738221e-4,0
354.48,-1.953125e-5,0.04322852,0.1105354,-0.0028861893070145843,-0.002864065616541269,0
354.52,-1.953125e-5,-0.04100586,0.1080088,-0.004061551642079382,-0.004839572306685227,0
354.56,-1.5625e-5,-0.06206445,0.1071498,-0.004124120859074093,-0.005508753115246513,0
354.6,-1.171875e-5,0.6164648,0.1106276,-0.0029265136170131163,-0.002779554287811554,0
354.64,-1.5625e-5,0.2310234,0.1129643,-0.0013503182052506427,-9.452059018417543e-4,0
354.68,-1.171875e-5,-0.2251543,0.1140547,6.748675107364021e-5,-8.787562478037771e-5,0
354.72,-7.8125e-6,-0.1772988,0.1173136,0.001022925811484028,0.002469143956452498,0
354.76,-1.953125e-5,-0.09851562,0.1160592,9.375529749722207e-4,0.0014889604979244683,0
354.8,-1.953125e-5,0.02557617,0.1140043,1.0345962347577865e-4,-1.184318562213949e-4,0
354.84,-1.5625e-5,0.2000332,0.1127108,-6.133331812189655e-4,-0.001129046048189272,0
354.88,-3.90625e-6,0.210541,0.1131648,-9.816848436443554e-4,-7.701215456416847e-4,0
354.92,-1.5625e-5,-0.07862695,0.1124808,-0.0012470402774137274,-0.001303300319772954,0
354.96,-7.8125e-6,-0.1947129,0.112215,-0.001450737983415368,-0.001508893415047337,0
355,-1.5625e-5,-0.1683731,0.1127076,-0.0016864058041906496,-0.0011202793809705033,0
355.04,-2.34375e-5,-0.133498,0.1111418,-0.00205789630696542,-0.0023452473983194,0
355.08,-1.171875e-5,-0.1025937,0.1116342,-0.0024544961890651694,-0.0019573374173390908,0
355.12,7.8125e-6,-0.08685938,0.110533,-0.0029607860501527253,-0.0028188243914378597,0
355.16,-1.5625e-5,-0.08654688,0.1097482,-0.0035670871945846327,-0.003432757408031046,0
355.2,-1.171875e-5,-0.0797793,0.1083279,-0.0038918359840810824,-0.004545347075960705,0
355.24,-1.5625e-5,-0.06328125,0.1096225,-0.0036840380352448927,-0.003530674776428669,0
355.28,-1.171875e-5,-0.05153125,0.11012570000000001,-0.003165367251226032,-0.0031368713757166694,0
355.32,0,-0.04570899,0.1121488,-0.0029383700118315887,-0.001552242695610821,0
355.36,-7.8125e-6,-0.04186914,0.1083975,-0.0028997911969365206,-0.004493921431550324,0
355.4,-1.5625e-5,-0.03810547,0.1117376,-0.0022698081187265333,-0.0018779630160328537,0
355.44,-1.953125e-5,-0.004748047,0.1122572,-0.0011755746058720947,-0.0014730518444501148,0
355.48,-1.5625e-5,0.02463672,0.1145335,-6.224399479645324e-5,3.0855479435895584e-4,0
355.52,-2.734375e-5,-0.05611914,0.1156881,7.995512973698043e-4,0.001211004692601221,0
355.56,-7.8125e-6,-0.06181445,0.1163511,0.0010581621897076414,0.001728322303292252,0
355.6,-1.171875e-5,0.980918,0.1147891,8.301414864128039e-4,5.019241190813103e-4,0
355.64,-1.953125e-5,-0.1877988,0.1144631,6.806031175514969e-4,2.444007427362055e-4,0
355.68,-2.34375e-5,-0.2082344,0.1145279,0.0010886301294954102,2.932309290082752e-4,0
355.72,-1.171875e-5,-0.1418926,0.1166823,0.002065133813512225,0.001979967588953845,0
355.76,-7.8125e-6,-0.05284766,0.1193808,0.0028340783224841317,0.0040934907638319525,0
355.8,-1.953125e-5,0.09978711,0.117657,0.002698067601134066,0.0027413946022641004,0
355.84,-2.34375e-5,0.2393769,0.1159667,0.0022532711632681163,0.0014159891808398237,0
355.88,-1.171875e-5,0.1188574,0.1175044,0.0019710498624898234,0.0026209627256541,0
355.92,-1.5625e-5,-0.1652481,0.1161844,0.0013725461637492796,0.0015864415910799511,0
355.96,-3.90625e-6,-0.1952031,0.1141831,5.240684682544357e-4,1.8157722976158696e-5,0
356,-2.734375e-5,-0.1613867,0.1147327,-3.560813081359171e-4,4.493108227474175e-4,0
356.04,-2.34375e-5,-0.128209,0.1116883,-0.0013771889632287274,-0.0019364968177743964,0
356.08,-2.734375e-5,-0.1031621,0.1102385,-0.0018606379970463071,-0.00307273861817051,0
356.12,-1.5625e-5,-0.1022383,0.1131672,-0.001583112185817212,-7.775309849533499e-4,0
356.16,-1.5625e-5,-0.09491602,0.1133271,-0.0016200117374310242,-6.526735670271446e-4,0
356.2,-1.171875e-5,-0.08302343,0.1100973,-0.0020365806437054198,-0.003184817481360492,0
356.24,-3.125e-5,-0.07286523,0.1111024,-0.0017382996668247857,-0.0023980855194949973,0
356.28,-2.34375e-5,-0.05415625,0.115159,-0.0011874333049395147,7.800796981006878e-4,0
356.32,-2.734375e-5,-0.05487891,0.1122278,-0.0015553492408354296,-0.001518775489801566,0
356.36,-2.734375e-5,-0.05268945,0.1101245,-0.0021301410295270474,-0.0031689499551132544,0
356.4,-4.296875e-5,-0.04051562,0.1119489,-0.0020658015584607697,-0.0017410340565603962,0
356.44,-2.734375e-5,0.01923242,0.1125482,-0.001970900871877182,-0.0012736450658660963,0
356.48,-3.125e-5,-0.06012695,0.1116774,-0.0024063751037550225,-0.001958743886097295,0
356.52,-3.125e-5,-0.0746875,0.1104953,-0.0032971571475150885,-0.002888153699486643,0
356.56,-3.125e-5,0.6630176,0.1080792,-0.004194473630629463,-0.004785247533481776,0
356.6,-3.515625e-5,0.07761328,0.108143,-0.004559246142654729,-0.004739313849470308,0
356.64,-3.515625e-5,-0.1952734,0.1072459,-0.003911430970051913,-0.005447296607667465,0
356.68,-4.296875e-5,-0.1478613,0.1111679,-0.0019242282869522658,-0.0023788559710961415,0
356.72,-4.296875e-5,-0.06497656,0.1148927,0.001069082771659851,5.346406366550139e-4,0
356.76,-2.734375e-5,0.06425,0.1211765,0.0040341115347710226,0.005454004680184182,0
356.8,-4.296875e-5,0.2375469,0.1227248,0.005828423958265315,0.006662473335971682,0
356.84,-3.90625e-5,0.2301543,0.1223406,0.006364842478722197,0.006357271353324193,0
356.88,-5.46875e-5,-0.09619532,0.1219617,0.006386336514123,0.006057227557154234,0
356.92,-3.125e-5,-0.2171387,0.1219043,0.006333891902972205,0.006010136917996024,0
356.96,-3.90625e-5,-0.1892559,0.1233969,0.005792550258539027,0.007178908927349529,0
357,-3.90625e-5,-0.1466523,0.1194933,0.004212614382561459,0.004119191274382893,0
357.04,-4.296875e-5,-0.1120039,0.1152611,0.00255608230024903,8.025624781365744e-4,0
357.08,-3.515625e-5,-0.098125,0.1161593,0.0019679598532557664,0.0015073457401571075,0
357.12,-3.515625e-5,-0.09487305,0.117527,0.0018501627974003977,0.0025803682675582325,0
357.16,-3.90625e-5,-0.08421289,0.1158844,0.0013447600243644145,0.0012942795107933724,0
357.2,-4.296875e-5,-0.06871875,0.1152497,4.825309171007866e-4,7.984024551028637e-4,0
357.24,-3.90625e-5,-0.05740625,0.1124775,-2.38408425986729e-4,-0.0013727534254107444,0
357.28,-4.296875e-5,-0.05239258,0.1147405,-6.816236278634306e-4,4.0254001406394256e-4,0
357.32,-5.078125e-5,-0.04674609,0.1121729,-0.0012966480018686707,-0.0016084005040590227,0
357.36,-4.296875e-5,-0.04137891,0.1110731,-0.0017563973341596757,-0.002469111130473838,0
357.4,-4.296875e-5,-0.03259961,0.1113177,-0.0012977488784803668,-0.0022764505832626675,0
357.44,-5.078125e-5,0.03803516,0.1147865,-1.3360172735273063e-4,4.430273074821404e-4,0
357.48,-3.90625e-5,-0.0343125,0.1162664,7.285749285147277e-4,0.0016036451843994353,0
357.52,-5.46875e-5,-0.0512168,0.1156138,7.558444738938169e-4,0.0010930304795128659,0
357.56,-4.6875e-5,0.5059297,0.1143831,3.4361087830725754e-4,1.294648444735298e-4,0
357.6,-3.515625e-5,0.3285742,0.1158118,-6.153114678938388e-4,0.0012503977006115418,0
357.64,-4.296875e-5,-0.2191211,0.1088834,-0.0019065288765586273,-0.00417889367747184,0
357.68,-4.296875e-5,-0.1684297,0.1108859,-0.0021426113147508773,-0.0026086701605495958,0
357.72,-5.46875e-5,-0.09379297,0.1122751,-0.0011950255828383687,-0.0015195724551311368,0
357.76,-5.078125e-5,0.02128906,0.1150373,-4.776988084033163e-5,6.454634925907739e-4,0
357.8,-4.6875e-5,0.1958965,0.1144348,0.0010507736581070073,1.7329849421500928e-4,0
357.84,-5.078125e-5,0.2227656,0.1186337,0.0019586533924364504,0.0034645709894213423,0
357.88,-5.46875e-5,-0.06104297,0.1167504,0.0021724166168850564,0.001989070036878164,0
357.92,-4.6875e-5,-0.2070254,0.1161021,0.0021097247508447036,0.0014818949331606365,0
357.96,-4.296875e-5,-0.1836484,0.1177263,0.0021869448673602974,0.0027561738151508255,0
358,-5.859375e-5,-0.1466855,0.1174923,0.0017366431556561247,0.0025744026266617797,0
358.04,-6.25e-5,-0.1098828,0.1143702,6.825954964853381e-4,1.2930142485684338e-4,0
358.08,-7.03125e-5,-0.09575781,0.1140488,-4.1608664969523297e-4,-1.2054822898931538e-4,0
358.12,-6.25e-5,-0.08749023,0.1123967,-0.0015347057266234952,-0.0014134397582464368,0
358.16,-7.8125e-5,-0.07449414,0.1103405,-0.002592321004205476,-0.0030232942111832915,0
358.2,-6.640625e-5,-0.05985742,0.1097562,-0.0031858560923727643,-0.0034799285760026815,0
358.24,-7.03125e-5,-0.04704102,0.1095422,-0.0031311766430849194,-0.003646865750266695,0
358.28,-6.640625e-5,-0.0389668,0.1114045,-0.0026249689863719694,-0.0021869434286003807,0
358.32,-7.421875e-5,-0.03102734,0.1114551,-0.002036658959034594,-0.002147404409465926,0
358.36,-8.203125e-5,-0.02724805,0.112215,-0.001321979060115038,-0.001552244421753014,0
358.4,-7.8125e-5,-0.02848438,0.1129565,-9.375795409406314e-5,-9.71751769790117e-4,0
358.44,-7.03125e-5,0.01412305,0.1165021,0.0017068143244268602,0.0018064835188948336,0
358.48,-7.03125e-5,-2.148438e-5,0.119599,0.00334918049614126,0.004233306230973436,0
358.52,-7.8125e-5,-0.05789844,0.1203819,0.003981871103189901,0.004847049195842427,0
358.56,-7.421875e-5,-0.0019375,0.1194562,0.0033820861095020843,0.004122331038209808,0
358.6,-7.421875e-5,0.8998711,0.1162921,0.0019898976812165233,0.0016437720340679554,0
358.64,-5.078125e-5,-0.2241621,0.1143964,6.02211310341674e-4,1.596637743465663e-4,0
358.68,-7.421875e-5,-0.2072187,0.1134423,-3.915267907562057e-4,-5.8637891275956e-4,0
358.72,-6.25e-5,-0.1367207,0.1120841,-8.810972114344576e-4,-0.0016492539107376529,0
358.76,-6.25e-5,-0.03721484,0.1133515,-8.603736847609322e-4,-6.544042725514546e-4,0
358.8,-6.640625e-5,0.1213437,0.1140672,-9.304967864745078e-4,-9.208880619713134e-5,0
358.84,-6.640625e-5,0.2444844,0.1108295,-0.0010275258532330338,-0.0026285227498924237,0
358.88,-5.46875e-5,0.07575,0.1141755,-5.046141800511357e-4,-4.967909256333513e-6,0
358.92,-6.640625e-5,-0.1785937,0.1142443,3.0732396720862425e-4,4.986709331150142e-5,0
358.96,-7.03125e-5,-0.1915117,0.1152651,0.0012183286977644316,8.509020066562619e-4,0
359,-6.640625e-5,-0.1526777,0.1186001,0.0018846399123380899,0.003465976349057118,0
359.04,-5.46875e-5,-0.1188574,0.116039,0.0016708873782307545,0.001460145467558507,0
359.08,-4.6875e-5,-0.09060351,0.1150102,0.001168548923967217,6.555851530501671e-4,0
359.12,-5.078125e-5,-0.08216406,0.1156995,8.726777264986938e-4,0.0011978012034605057,0
359.16,-5.078125e-5,-0.07901953,0.1147375,5.046587312023452e-4,4.4589243616846526e-4,0
359.2,-5.859375e-5,-0.06982226,0.1152589,-2.9756426901991247e-4,8.567654994181038e-4,0
359.24,-5.078125e-5,-0.05495508,0.111484,-0.0016044534680061077,-0.002099731219988353,0
359.28,-5.46875e-5,-0.04686328,0.1092359,-0.002439837762011253,-0.0038598305459878277,0
359.32,-5.46875e-5,-0.04213867,0.1113894,-0.0021178604174042544,-0.00217049860885325,0
359.36,-5.859375e-5,-0.02811523,0.1119378,-9.90049432053886e-4,-0.001739611164458018,0
359.4,-6.25e-5,-0.02298438,0.1161376,2.8145697029226767e-4,0.001553024241139437,0
359.44,-5.859375e-5,-0.02180078,0.1156309,9.366597511603741e-4,0.001156878840059712,0
359.48,-6.640625e-5,0.0345957,0.1146839,0.0012879754921327716,4.158023215370591e-4,0
359.52,-4.296875e-5,-0.03337695,0.1168647,0.001976385167692859,0.0021264085363086587,0
359.56,-4.6875e-5,-0.06086719,0.1171623,0.0028755574339624206,0.0023612698464253153,0
359.6,-5.46875e-5,0.3060937,0.1198244,0.0036238179800603698,0.004449835011740887,0
359.64,-4.6875e-5,0.5329414,0.1183109,0.004058257134837411,0.0032662043167537456,0
359.68,-4.6875e-5,-0.2224648,0.1193821,0.004642612406394747,0.004109016486874466,0
359.72,-5.46875e-5,-0.1854082,0.1213755,0.005442560550612543,0.0056753119132605875,0
359.76,-5.078125e-5,-0.1143809,0.121392,0.0060529295198642735,0.005692979411415346,0
359.8,-5.078125e-5,-0.003230469,0.1240322,0.005895965248374822,0.007768041812229838,0
359.84,-4.296875e-5,0.1699082,0.1189349,0.00464035539048547,0.003779561146898393,0
359.88,-4.296875e-5,0.2350977,0.1165543,0.003557360352231261,0.001921068019640033,0
359.92,-2.734375e-5,-0.03139453,0.1192161,0.0032821357658176383,0.004015187855206585,0
359.96,-4.296875e-5,-0.2050371,0.1187614,0.002523296148819361,0.003667181828790025,0
360,-3.125e-5,-0.1878164,0.1140132,0.001036423689588688,-4.555546546417977e-5,0
360.04,-1.953125e-5,-0.1460078,0.1133863,-7.11493817164965e-5,-5.279625210752075e-4,0
360.08,-3.515625e-5,-0.1165137,0.1137825,-7.383520733823118e-4,-2.0853166099062142e-4,0
360.12,-3.125e-5,-0.09949804,0.1108773,-0.0011475098078746675,-0.0024768211135431355,0
360.16,-5.078125e-5,-0.09113867,0.1140119,-0.0012160559263449146,-1.1414891802540838e-5,0
360.2,-4.296875e-5,-0.08386719,0.1119503,-0.001505427371030461,-0.0016188708248409851,0
360.24,-4.296875e-5,-0.0722793,0.1119173,-0.002158440985866198,-0.001636534976048478,0
360.28,-3.125e-5,-0.05792969,0.1104003,-0.0030308960016221334,-0.002817639278001261,0
360.32,-4.296875e-5,-0.04943945,0.1086689,-0.003948382954048131,-0.004167238524026734,0
360.36,-4.296875e-5,-0.04242187,0.1076664,-0.004413208879287473,-0.004946173004677659,0
360.4,-3.90625e-5,-0.036,0.1088457,-0.004336877740909888,-0.00401576068153746,0
360.44,-3.125e-5,-0.03085351,0.1078466,-0.0037257449506640276,-0.004793445495598434,0
360.48,-1.5625e-5,-0.005916016,0.1107797,-0.002304877219501225,-0.0024897693244929926,0
360.52,-1.953125e-5,0.03275781,0.1145251,-6.562183217786704e-4,4.502067093639392e-4,0
360.56,-2.734375e-5,-0.04505664,0.1158055,-2.4578564207821834e-5,0.001458149463895795,0
360.6,-3.125e-5,-0.07256055,0.1142934,-9.952078438911082e-4,2.7751865150039804e-4,0
360.64,-2.734375e-5,0.9513086,0.1093735,-0.0029237466818189013,-0.0035741536478791913,0
360.68,-1.5625e-5,-0.1457598,0.107284,-0.004454606502080399,-0.005207879953613055,0
360.72,-2.734375e-5,-0.2036777,0.1069767,-0.004934589808857953,-0.005445513324677323,0
360.76,-1.953125e-5,-0.1493457,0.1074827,-0.004413306498201036,-0.005046529800923629,3.989835237536944e-4
360.8,-4.296875e-5,-0.06938867,0.1088525,-0.0027428712258763324,-0.003971283707501465,0.0014742296171758578
360.84,-3.515625e-5,0.06843554,0.1138543,2.6936753006790877e-5,-4.984810183882964e-5,0.005395665222838493
360.88,-2.734375e-5,0.2256953,0.1188741,0.002908461833342292,0.0038856883045504157,0.009331201629227738
360.92,-3.90625e-5,0.1612363,0.1202197,0.005097249291128026,0.004941944681229773,0.010387458005907096
360.96,-2.734375e-5,-0.1372695,0.1243057,0.006198166807864673,0.008146948583683582,0.013592461908360904
361,-3.125e-5,-0.2050859,0.1208814,0.005956187825689824,0.00546655206361365,0.010912065388290974
361.04,-2.734375e-5,-0.1687969,0.1199534,0.005205599309452183,0.004743656636059089,0.010189169960736412
361.08,-1.953125e-5,-0.1292734,0.1203246,0.004361478669760361,0.005039843006324067,0.01048535633100139
361.12,-2.34375e-5,-0.09995703,0.1171491,0.0031687414955605545,0.002556868049011468,0.008002381373688791
361.16,-1.953125e-5,-0.08327734,0.1157908,0.0021344162809407655,0.0014986457976279204,0.006944159122305243
361.2,-1.5625e-5,-0.06880469,0.1159885,0.001472446967531844,0.0016602766127358562,0.00710578993741318
361.24,-1.5625e-5,-0.06433398,0.1153557,6.307583466588839e-4,0.0011712111322603953,0.006616724456937719
361.28,-2.34375e-5,-0.06071289,0.1127959,-5.557204305850925e-4,-8.280812056806723e-4,0.0046174321189966505
361.32,-1.953125e-5,-0.05232422,0.1116517,-0.0017192848202184268,-0.0017179355722506432,0.00372757775242668
361.36,-1.953125e-5,-0.03688867,0.1097131,-0.002491606976346056,-0.0032307240079935285,0.0022147893166837946
361.4,-1.953125e-5,-0.03416406,0.1107966,-0.0028212234553729224,-0.002375254847462128,0.003070258477215195
361.44,-1.5625e-5,-0.02940234,0.1110333,-0.0034090365390760536,-0.002183895477195714,0.0032616178474816093
361.48,-2.34375e-5,-0.0274668,0.1066399,-0.004270921529200155,-0.005622023584661227,0
361.52,-1.171875e-5,0.003414063,0.1078109,-0.004348750056116611,-0.004699578449665217,0
361.56,-3.125e-5,0.02951758,0.1101859,-0.0038850920872417556,-0.002834162034443322,0
361.6,-1.5625e-5,-0.05421289,0.1093796,-0.0038438685613801636,-0.0034627443809457214,0
361.64,-1.5625e-5,-0.07375781,0.1090752,-0.004317307164270473,-0.003698476747590567,0
361.68,-1.5625e-5,0.9751172,0.1067279,-0.004821237494642897,-0.005536049190027512,0
361.72,-3.125e-5,-0.1956035,0.1073155,-0.00470296979321917,-0.0050740767847548,0
361.76,-3.515625e-5,-0.2081328,0.109153,-0.003995612405399382,-0.0036332151255539127,0
361.8,-4.296875e-5,-0.1515664,0.1101578,-0.0033131769674888617,-0.002845610125010162,0
361.84,-3.90625e-5,-0.06207812,0.109559,-0.0026345260844996615,-0.003315380510813182,0
361.88,-3.125e-5,0.08501172,0.1110937,-0.0013069321732414412,-0.0021134048238436918,0
361.92,-1.953125e-5,0.2313457,0.1144642,8.722602918552133e-4,5.271649826343346e-4,0
361.96,-3.125e-5,0.1429531,0.1193525,0.0030405984356604897,0.004357492696165866,0
362,-2.734375e-5,-0.1511738,0.1195478,0.004258201320556632,0.004510064000774637,0
362.04,-3.125e-5,-0.2078477,0.1209131,0.004280409476347031,0.005580411294193168,0
362.08,-3.515625e-5,-0.1595781,0.1183605,0.0030180292250231847,0.0035807304401170724,0
362.12,-2.734375e-5,-0.1219336,0.1147782,8.686000493619086e-4,7.745205957751368e-4,0
362.16,-1.171875e-5,-0.09460937,0.1115031,-0.001315289942763801,-0.0017907789149302015,0
362.2,-1.953125e-5,-0.08814649,0.1100894,-0.0032202332932196793,-0.0028973676875499324,0
362.24,-2.34375e-5,-0.08254102,0.1064144,-0.004671026869532263,-0.005776855253253389,0
362.28,-3.515625e-5,-0.07993945,0.1064928,-0.0051201017242288255,-0.00571528328907046,0
362.32,-3.515625e-5,-0.07025586,0.1081339,-0.004668754627827429,-0.00442974594978115,0
362.36,-3.515625e-5,-0.06261719,0.1088789,-0.003955508884877714,-0.0038472849418917277,0
362.4,-2.734375e-5,-0.05199805,0.1087692,-0.0028308157338698087,-0.003935358333029205,0
362.44,-2.734375e-5,-0.04028711,0.1136574,-0.0012761354504172953,-1.0662340674818973e-4,0
362.48,-4.6875e-5,-0.03717578,0.11442190000000001,-2.5106654517025257e-4,4.898760917919154e-4,0
362.52,-1.953125e-5,-0.02791602,0.1132286,1.659393973384584e-4,-4.481003733632704e-4,0
362.56,-1.953125e-5,0.03250195,0.1152681,5.162138808155912e-4,0.0011477700559112695,0
362.6,-3.515625e-5,-0.0424375,0.1147787,5.717898647951875e-4,7.616315789558306e-4,0
362.64,-3.125e-5,-0.05643359,0.1141188,2.933422073418907e-4,2.419728965918174e-4,0
362.68,-3.515625e-5,0.4113086,0.113205,1.4332269526396254e-4,-4.76658242418546e-4,0
362.72,-4.296875e-5,0.3292852,0.1154219,-2.6893607976206673e-5,0.0012585254748423485,0
362.76,-3.90625e-5,-0.2017871,0.1138282,-0.0011325966978227614,7.101881880718563e-6,0
362.8,-4.6875e-5,-0.1641328,0.1080122,-0.0026953264018798728,-0.004553823353974237,0
362.84,-4.6875e-5,-0.09202344,0.1101995,-0.003556979596628821,-0.0028423598508167027,0
362.88,-5.078125e-5,0.03400391,0.1077755,-0.003818169526935153,-0.004745752087687219,0
362.92,-3.90625e-5,0.2183906,0.108037,-0.0030947576545023617,-0.004544958171673551,0
362.96,-3.515625e-5,0.250334,0.1118066,-8.308264455610276e-4,-0.001595180039166775,0
363,-3.90625e-5,-0.05183789,0.1186811,0.0017500789412112792,0.00378801387689047,0
363.04,-4.296875e-5,-0.2100234,0.1207724,0.0022901265859123733,0.005422661321877683,0
363.08,-3.90625e-5,-0.1853887,0.1129861,5.801045098670353e-4,-6.840475224998528e-4,0
363.12,-5.859375e-5,-0.1390898,0.1112478,-0.00106129147148044,-0.0020503502861577154,0
363.16,-3.515625e-5,-0.1079531,0.112089,-0.0018070015660856353,-0.0013951256354528983,0
363.2,-6.25e-5,-0.08875,0.1107375,-0.002388673770362118,-0.0024587928174560594,0
363.24,-5.078125e-5,-0.08152344,0.110087,-0.002902407377899985,-0.002973393872459087,0
363.28,-3.90625e-5,-0.07293945,0.1097713,-0.0031812113565221406,-0.0032260431811900665,0
363.32,-4.296875e-5,-0.06372851,0.1098412,-0.0032630662649772565,-0.0031769628327528794,0
363.36,-4.6875e-5,-0.05564063,0.1086644,-0.002818766735874256,-0.004105566567408026,0
363.4,-4.296875e-5,-0.04860742,0.1130547,-0.0018207179101210743,-6.712412736093602e-4,0
363.44,-5.078125e-5,-0.03602539,0.1137014,-0.0013951097056083023,-1.713124306874275e-4,0
363.48,-3.90625e-5,-0.02603125,0.1113609,-0.0019564976288826926,-0.002012823298248284,0
363.52,-3.125e-5,-0.02679297,0.1096266,-0.002475549745509731,-0.003379503286982217,0
363.56,-6.640625e-5,0.01393359,0.111811,-0.002569941299883364,-0.0016751804997595851,0
363.6,-5.46875e-5,0.003271484,0.1110455,-0.003003326697176123,-0.0022832986143778993,0
363.64,-4.6875e-5,-0.05217383,0.1079468,-0.0036471097374519276,-0.004720574856046879,0
363.68,-5.859375e-5,0.02747656,0.1081493,-0.0032715555136156537,-0.004571065972631591,0
363.72,-6.25e-5,0.8592383,0.1117608,-0.0015581286180509307,-0.0017502530784667626,0
363.76,-5.078125e-5,-0.2081152,0.1155416,5.448992022596158e-4,0.0012029833157882013,0
363.8,-5.859375e-5,-0.1980742,0.1181465,0.0018622866856937029,0.0032347214394044363,0
363.84,-5.078125e-5,-0.1390938,0.1167146,0.0020223891763906494,0.002102865351728409,0
363.88,-5.46875e-5,-0.05338867,0.1160603,0.0016067107199479,0.0015808360281541868,0
363.92,-4.6875e-5,0.09701757,0.1149085,0.001257822853293599,6.691083128311708e-4,0
363.96,-6.25e-5,0.2094531,0.1149357,0.0014049348312193274,6.816043434667163e-4,0
364,-5.859375e-5,0.05458203,0.1149346,0.002669076770724665,6.72026046704035e-4,0
364.04,-5.859375e-5,-0.1721231,0.1230111,0.004408760838137711,0.006993899242956514,0
364.08,-7.03125e-5,-0.1773457,0.1223876,0.0042718484904795,0.006497685022545652,0
364.12,-5.46875e-5,-0.1394531,0.1149587,0.0022498541941721726,6.683212298964411e-4,0
364.16,-5.078125e-5,-0.1084805,0.1129041,9.343719808429603e-4,-9.484791860541755e-4,0
364.2,-6.640625e-5,-0.08652735,0.115977,0.001031834662885959,0.0014535828606769407,0
364.24,-7.421875e-5,-0.07363281,0.1161386,0.001290880480797738,0.0015739533778915662,0
364.28,-7.03125e-5,-0.07014453,0.1163138,9.49516819959789e-4,0.0017052323464383983,0
364.32,-8.203125e-5,-0.06012695,0.1140916,3.6204627228962095e-5,-4.233786054779069e-5,0
364.36,-7.421875e-5,-0.05623047,0.1129388,-0.0011082657716652796,-9.517028179539436e-4,0
364.4,-6.640625e-5,-0.04951367,0.1112762,-0.0022612254831024707,-0.0022608070424389873,0
364.44,-5.46875e-5,-0.04576172,0.1097777,-0.003284926563289602,-0.0034416442344391784,0
364.48,-7.421875e-5,-0.04466601,0.109375,-0.004136826452543493,-0.0037641202888138514,0
364.52,-7.421875e-5,-0.03510156,0.1065115,-0.004459835622244708,-0.006016003142462869,0
364.56,-6.640625e-5,-0.01198828,0.1088087,-0.0034841431112520894,-0.004223801153969425,0
364.6,-7.8125e-5,0.04000196,0.1126463,-0.0014734662391390264,-0.0012248773275972975,0
364.64,-8.59375e-5,-0.04854102,0.1173445,-5.305272474058309e-5,0.002448404390800192,0
364.68,-7.8125e-5,-0.08533008,0.1136198,-8.065733675560384e-5,-4.799239686937741e-4,0
364.72,-8.59375e-5,0.9611406,0.1131811,-5.196242972742975e-4,-8.327114927762133e-4,0
364.76,-5.078125e-5,-0.1473926,0.1133617,-5.888360136119558e-4,-7.002137913419115e-4,0
364.8,-7.421875e-5,-0.2191348,0.1136367,-4.505061151131082e-4,-4.938345190877891e-4,0
364.84,-7.421875e-5,-0.1620508,0.1144693,-3.863997347285811e-4,1.4952209992890052e-4,0
364.88,-7.03125e-5,-0.07861133,0.1116394,2.0890747728116777e-5,-0.0020778207038934958,0
364.92,-5.859375e-5,0.05254687,0.1151195,0.0018981074406908798,6.403820354948543e-4,0
364.96,-6.25e-5,0.1924531,0.1228163,0.0043544371888196145,0.006663799306151349,0
365,-6.25e-5,0.1358438,0.122767,0.0051000607495102004,0.00661675831379531,0
365.04,-6.640625e-5,-0.1294199,0.1187283,0.004169545387435755,0.0034438100538914346,0
365.08,-7.421875e-5,-0.1831992,0.117661,0.003138752626148692,0.0026004340310040552,0
365.12,-6.640625e-5,-0.1437793,0.1177397,0.0023844745133627106,0.002655720856484091,0
365.16,-5.859375e-5,-0.1137148,0.1166418,0.0013657936664243596,0.0017891901629235789,0
365.2,-7.421875e-5,-0.09320898,0.1133317,2.5471182058776996e-4,-8.110138789477138e-4,0
365.24,-6.640625e-5,-0.0787207,0.1137463,-3.001712477376049e-4,-4.918696602843399e-4,0
365.28,-7.421875e-5,-0.06942578,0.1148645,-7.330475407511086e-4,3.7868922929743085e-4,0
365.32,-5.859375e-5,-0.06224414,0.1111485,-0.0013796553698007565,-0.0025398113399194957,0
365.36,-6.25e-5,-0.0489707,0.1111851,-0.001180930577791972,-0.002517368224259074,0
365.4,-5.46875e-5,-0.04037109,0.1164159,-3.3421403718389756e-4,0.0015759700601535027,0
365.44,-6.25e-5,-0.03633399,0.1142027,-2.230314495366464e-4,-1.6516284823952376e-4,0
365.48,-5.859375e-5,-0.03442188,0.1130744,-5.47582429182952e-4,-0.0010559607690405952,0
365.52,-7.03125e-5,-0.03312109,0.1142501,-7.222983117051239e-4,-1.410153149663861e-4,0
365.56,-7.421875e-5,-0.01751953,0.1124126,-8.136826334134896e-4,-0.0015878839809799245,0
365.6,-7.421875e-5,0.0538418,0.1146193,-8.604302501169435e-4,1.349018717678671e-4,0
365.64,-7.421875e-5,-0.04387695,0.1142471,-0.001662539226372744,-1.6367189614191477e-4,0
365.68,-6.25e-5,-0.07208594,0.1096208,-0.0034514189739845436,-0.0037966995984299564,0
365.72,-7.03125e-5,0.8355782,0.1070396,-0.005037471180222676,-0.005827346500255783,0
365.76,-5.859375e-5,0.005621094,0.1071073,-0.005731429219750276,-0.005782665693960503,0
365.8,-6.640625e-5,-0.2148613,0.1068038,-0.005725155586679883,-0.0060298502983737665,0
365.84,-6.25e-5,-0.1629648,0.1079441,-0.005192802237713754,-0.005146314828309371,0
365.88,-5.859375e-5,-0.08090429,0.1090628,-0.004287398670406253,-0.004280522492713427,0
365.92,-5.859375e-5,0.05449414,0.1104156,-0.0031017967640833265,-0.003231915024860929,0
365.96,-5.46875e-5,0.2022383,0.1120746,-0.0015248619828418233,-0.001943813751120146,0
366,-5.859375e-5,0.1890293,0.1153321,3.731174645544378e-4,5.969090863638129e-4,0
366.04,-6.640625e-5,-0.0785625,0.1187227,0.001828086310049407,0.0032420519884043693,0
366.08,-5.46875e-5,-0.1697988,0.1168878,0.0024802795779668638,0.0017918807520813911,0
366.12,-5.859375e-5,-0.1352148,0.1200029,0.0024609894958845177,0.004221877555706589,0
366.16,-6.25e-5,-0.106209,0.1164007,0.001494508751043231,0.0013874194982314435,0
366.2,-4.296875e-5,-0.08407227,0.1127178,6.299634268894973e-4,-0.0015100733360085905,0
366.24,-4.6875e-5,-0.07284961,0.1164448,9.039070589918679e-4,0.0014001873321631156,0
366.28,-4.6875e-5,-0.06332812,0.1170505,0.0013177046451350316,0.0018641468540642617,0
366.32,-6.640625e-5,-0.04691602,0.1162615,0.0011751999763493853,0.0012352137612045547,0
366.36,-4.6875e-5,-0.03018945,0.1159051,7.078729199138697e-4,9.455541780083485e-4,0
366.4,-4.6875e-5,-0.01129297,0.1140629,2.9344010556237954e-4,-5.085486492212082e-4,0
366.44,-4.6875e-5,0.01558008,0.1160732,-4.358740255771166e-5,0.0010569161285047604,0
366.48,-5.46875e-5,0.03463086,0.11436639999999999,-9.891056120863069e-4,-2.9097152518010443e-4,0
366.52,-5.859375e-5,0.0385625,0.1099169,-0.002102918492042861,-0.0037886749789450085,0
366.56,-4.296875e-5,0.0775664,0.1125422,-0.0025066726146276367,-0.001741641237581439,0
366.6,-4.6875e-5,0.0880332,0.1108652,-0.002543476951282744,-0.003067090520799455,0
366.64,-5.46875e-5,0.009285156,0.1115951,-0.0022537966156654927,-0.0025064594546059986,0
366.68,-4.6875e-5,0.03657813,0.1137865,-0.0018071407491953473,-8.006783573507002e-4,0
366.72,-3.90625e-5,0.9411699,0.1123998,-0.0017030882643528263,-0.0018995927426583212,0
366.76,-3.125e-5,-0.1492969,0.1118077,-0.0013593366965569294,-0.0023759875905240225,0
366.8,-1.953125e-5,-0.1556211,0.1139288,-4.643512437051485e-5,-7.261103626452599e-4,0
366.84,-3.125e-5,-0.08782031,0.1168639,0.0021867434589674085,0.00156167773794893,0
366.88,-3.515625e-5,0.007984375,0.122269,0.004508168645823614,0.005785735918648169,0
366.92,-2.734375e-5,0.1646074,0.1231851,0.005805729189101855,0.006492161537729936,0
366.96,-3.125e-5,0.2852168,0.1236803,0.005620636204890714,0.006869704623051122,0
367,-3.125e-5,0.1599121,0.1178297,0.0049891799733981085,0.002274398336081812,0
367.04,-2.34375e-5,-0.09199219,0.1225207,0.0050812292256303,0.005942117157901135,0
367.08,-2.34375e-5,-0.1206484,0.1217483,0.005140396591580475,0.0053284786192400865,0
367.12,-2.34375e-5,-0.09084961,0.1198025,0.004876271137720914,0.003795952862822401,0
367.16,-2.734375e-5,-0.06415625,0.1213974,0.004899115798231497,0.005039280927771106,0
367.2,-3.515625e-5,-0.05186133,0.1205053,0.005140382383035941,0.00433405650503838,0
367.24,-3.515625e-5,-0.04272461,0.1234755,0.005072942090794177,0.006656845839736234,0
367.28,-4.296875e-5,-0.03027148,0.119982,0.0040773343984101314,0.003914340378854396,0
367.32,-3.90625e-5,-0.031375,0.1179273,0.0025754003133404966,0.0023002063436121482,0
367.36,-3.515625e-5,-0.02057422,0.1158074,0.0013866599389390126,6.353308176436086e-4,0
367.4,-2.734375e-5,-0.01795117,0.1162208,5.544224015097387e-4,9.561945791558442e-4,0
367.44,-3.515625e-5,-0.008005859,0.1146683,-3.143611813179636e-4,-2.6369288294138173e-4,0
367.48,-3.125e-5,0.003308594,0.1141176,-0.0015396252428019955,-6.983959577889861e-4,0
367.52,-1.953125e-5,0.01505859,0.1102733,-0.002931572501486818,-0.0037147829483583994,0
367.56,-2.734375e-5,0.07983398,0.1088269,-0.003505459008744314,-0.004852246212205717,0
367.6,-3.125e-5,-0.01635352,0.1117847,-0.0029224059497150764,-0.0025383970198067187,0
367.64,-3.125e-5,-0.0398457,0.1129219,-0.002102059510741917,-0.0016519625878724114,0
367.68,-3.515625e-5,0.6509609,0.1124343,-0.0012906503411417517,-0.0020393319180821564,0
367.72,-1.5625e-5,0.147334,0.1135714,4.026416567928589e-4,-0.0011535588118843532,0
367.76,-3.125e-5,-0.1899844,0.1202357,0.002909782796132851,0.004064335290801346,0
367.8,-1.5625e-5,-0.141166,0.1219145,0.004912132569277591,0.005375160752659801,0
367.84,-2.34375e-5,-0.05785742,0.1227822,0.006027218132183086,0.00605108260269591,0
367.88,-1.953125e-5,0.0659668,0.1244571,0.006370318452660767,0.0073606556641741625,0
367.92,-2.34375e-5,0.2131269,0.1214678,0.006093149244683159,0.005015520465128696,0
367.96,-7.8125e-6,0.2187422,0.1218643,0.00605551103807259,0.005325018717706848,0
368,0,-0.05894922,0.1245108,0.006048342778543396,0.007398942036532547,0
368.04,-3.90625e-6,-0.1913867,0.1216146,0.005127644200303815,0.005129581520121294,0
368.08,-3.90625e-6,-0.1642637,0.1184275,0.003915265896000267,0.0026330192570219713,0
368.12,-7.8125e-6,-0.1280176,0.1197739,0.0030902335284265997,0.0036902988543208773,0
368.16,-1.5625e-5,-0.1054199,0.1178168,0.002130425902519097,0.0021588278462891636,0
368.2,-1.171875e-5,-0.09189258,0.1153417,0.0011600662837445903,2.2168151447419837e-4,0
368.24,-1.171875e-5,-0.08943555,0.1158124,7.512662919656264e-4,5.935328998672453e-4,0
368.28,-2.34375e-5,-0.08537695,0.1151283,9.77033134783627e-4,6.0328267684567196e-5,0
368.32,-7.8125e-6,-0.07586133,0.1179934,0.0015409097894474243,0.0023090499407493518,0
368.36,-1.5625e-5,-0.06247851,0.1186289,0.0014537143031588438,0.002810541980027559,0
368.4,-1.953125e-5,-0.04963281,0.1146633,5.112057043929492e-4,-2.93934076839787e-4,0
368.44,-2.34375e-5,-0.04368555,0.1149046,-4.6454784287675217e-4,-1.0102454203544172e-4,0
368.48,-1.171875e-5,-0.03622266,0.1121059,-9.636406495154729e-4,-0.0022909290581928947,0
368.52,-2.34375e-5,0.02526367,0.1145819,-8.39502130272779e-4,-3.468055247511915e-4,0
368.56,-1.171875e-5,-0.02080469,0.1143781,-5.481416636352785e-4,-5.03204635143273e-4,0
368.6,-1.5625e-5,-0.06122851,0.1138777,-1.4677041650472685e-4,-8.921627911214121e-4,0
368.64,-1.5625e-5,0.1197656,0.1169531,3.8476681263396965e-4,0.0015215044202380869,0
368.68,-1.953125e-5,0.6824883,0.1157223,4.262816422349195e-4,5.601470570938977e-4,0
368.72,-7.8125e-6,-0.2219297,0.1122204,0.0010041198456418115,-0.00218124446296462,0
368.76,-2.734375e-5,-0.1987266,0.117883,0.0039085081772108335,0.0022602936110314624,0.004441538073996082
368.8,-2.34375e-5,-0.1312656,0.1266675,0.00829459058989881,0.009149181198413308,0.011330425661377928
368.84,-1.953125e-5,-0.029673830000000002,0.1328263,0.01144880796114095,0.013981450187091932,0.016162694650056552
368.88,-2.34375e-5,0.1301328,0.1310505,0.01201997899552021,0.012596667387602763,0.014777911850567383
368.92,-1.5625e-5,0.2071348,0.1294251,0.01059374975503818,0.011331759705563776,0.013513004168528396
368.96,-2.734375e-5,0.01355469,0.1236859,0.008438290721660297,0.006844182761818415,0.009025427224783035
369,-2.34375e-5,-0.1892246,0.1226463,0.00676485965820415,0.006041304421156952,0.008222548884121572
369.04,-2.34375e-5,-0.1854746,0.1223433,0.005552342052877587,0.005816738397191005,0.007997982860155625
369.08,-1.5625e-5,-0.1526113,0.1199115,0.004174220901240389,0.003924505256316979,0.006105749719281598
369.12,-2.734375e-5,-0.1189199,0.1177243,0.0028284708974638246,0.002224613078221193,0.004405857541185812
369.16,-1.171875e-5,-0.09753711,0.1162677,0.0020680866901335586,0.0010977275784425369,0.003278972041407157
369.2,-2.734375e-5,-0.08530273,0.1185746,0.0015673774345616104,0.002920903803741805,0.005102148266706425
369.24,-3.125e-5,-0.07726953,0.1154433,4.7930441881438503e-4,4.819976883953493e-4,0.0026632421513599694
369.28,-2.734375e-5,-0.07245117,0.1129142,-8.210222764115454e-4,-0.001484818816515157,6.964256464494628e-4
369.32,-1.5625e-5,-0.06396094,0.1124445,-0.0015764035926858113,-0.0018376808625242245,3.435636004403954e-4
369.36,-2.34375e-5,-0.05980078,0.1127243,-0.00197328493290104,-0.0016033636575854416,5.778808053791783e-4
369.4,-2.34375e-5,-0.05467969,0.1114446,-0.00228415785799787,-0.002591659409679812,0
369.44,-1.171875e-5,-0.04803125,0.1125354,-0.0026418653742422,-0.0017223306022987547,0
369.48,-3.515625e-5,-0.02920508,0.1109672,-0.003429117169141451,-0.0029374383118593844,0
369.52,-3.125e-5,0.03193359,0.107756,-0.004190905317940126,-0.005440818227085208,0
369.56,-1.171875e-5,-0.06021289,0.1091336,-0.003976973496590741,-0.004348286356582893,0
369.6,-2.34375e-5,-0.09396289,0.1120433,-0.003282671388748212,-0.0020555579732669618,0
369.64,-3.515625e-5,0.9028047,0.1108223,-0.003000046909374892,-0.0030008595074978895,0
369.68,-2.734375e-5,-0.1041777,0.1103924,-0.00270408719907454,-0.0033265587738789976,0
369.72,-2.734375e-5,-0.2334473,0.1131549,-0.0021624492264646134,-0.0011505318562731572,0
369.76,-1.953125e-5,-0.1802695,0.1131944,-0.002231226158755982,-0.0011090153252867674,0
369.8,-2.734375e-5,-0.08886719,0.1109131,-0.0032275622331368473,-0.0028867521657385356,0
369.84,-1.953125e-5,0.05148242,0.1067281,-0.0038758401855330527,-0.00615709382039352,0
369.88,-3.90625e-5,0.2001445,0.1102134,-0.0028503810846533285,-0.003416310380433952,0
369.92,-4.296875e-5,0.1529414,0.1148824,-9.94732329555356e-4,2.517355508396737e-4,0
369.96,-3.125e-5,-0.1254727,0.116168,-2.850035057170575e-5,0.0012678610133442679,0
370,-3.90625e-5,-0.1960957,0.1148798,-3.882840224465244e-4,2.668032340336801e-4,0
370.04,-3.90625e-5,-0.1602422,0.1121571,-0.0013316637391038706,-0.00185859526253328,0
370.08,-7.8125e-6,-0.1236504,0.1108671,-0.0017227689131805747,-0.0028613152914000284,0
370.12,-2.34375e-5,-0.1008008,0.113395,-0.0012832935637883062,-8.719592784287704e-4,0
370.16,-3.515625e-5,-0.08961914,0.1152078,-0.0011782479701549144,5.567528078398766e-4,0
370.2,-2.34375e-5,-0.08495508,0.1120029,-0.002235981315099047,-0.001947396526651762,0
370.24,-3.90625e-5,-0.07892969,0.1096734,-0.0038710438014206558,-0.003765701607865956,0
370.28,-4.6875e-5,-0.06675,0.1072393,-0.005307203689368079,-0.005666588450064373,0
370.32,-5.46875e-5,-0.05970899,0.1056819,-0.005960101432841986,-0.006881199429166522,0
370.36,-4.296875e-5,-0.05026953,0.1075288,-0.005661980434168204,-0.005428555154444943,0
370.4,-5.078125e-5,-0.04161914,0.1079837,-0.004803804809213998,-0.005067838886662687,0
370.44,-4.296875e-5,-0.02905273,0.1099217,-0.003569598475013671,-0.003545446683731679,0
370.48,-4.6875e-5,0.03683398,0.1112926,-0.0018688282694443643,-0.002468115971308214,0
370.52,-5.078125e-5,-0.02009766,0.1167683,-3.412905535808484e-4,0.0018262294489681493,0
370.56,-5.859375e-5,-0.05241406,0.1148901,-3.5652239221420834e-6,3.567649446409238e-4,0
370.6,-6.25e-5,0.2629316,0.1148245,-8.64836156272516e-4,3.081001472733634e-4,0
370.64,-5.46875e-5,0.5959063,0.1114312,-0.0025211193335056338,-0.0023488177129354962,0
370.68,-5.859375e-5,-0.2175801,0.1079104,-0.004196882876171127,-0.005106042941311356,0
370.72,-4.296875e-5,-0.1875781,0.1063308,-0.00459915673589851,-0.006342532541521409,0
370.76,-6.640625e-5,-0.1179023,0.1092847,-0.003137781466579377,-0.004026597736926444,0.002315934804594965
370.8,-5.859375e-5,-0.005619141,0.114372,-5.896448514582215e-4,-3.91075593882026e-5,0.0063034249821332065
370.84,-6.25e-5,0.1626387,0.1170103,0.0019096040401205237,0.0020288131069428686,0.008371345648464278
370.88,-6.640625e-5,0.2196426,0.1194995,0.004118536773733865,0.003980187330815664,0.010322719872337073
370.92,-5.46875e-5,-0.02234961,0.1221949,0.006173324041497858,0.006093812808731256,0.012436345350252665
370.96,-5.859375e-5,-0.2030352,0.125796,0.007568594369973083,0.008918302039812226,0.015260834581333635
371,-5.859375e-5,-0.1895059,0.1243657,0.00773475301247698,0.007800512072208437,0.014143044613729845
371.04,-6.640625e-5,-0.147752,0.1233676,0.007021879113041568,0.007022718906776307,0.013365251448297717
371.08,-5.859375e-5,-0.1186953,0.1212324,0.0061245694528546234,0.005354758575326357,0.011697291116847766
371.12,-6.25e-5,-0.099625,0.1223686,0.004959000060033558,0.006251816814666457,0.012594349356187865
371.16,-6.25e-5,-0.09208203,0.11761,0.0031681351542807083,0.002529428741060248,0.008871961282581657
371.2,-6.25e-5,-0.0837207,0.1146554,0.0016226552842251078,2.2144267989916366e-4,0.0065639752214205725
371.24,-6.25e-5,-0.07397656,0.114891,0.0012884728750316168,4.1401872416492165e-4,0.006756551265686331
371.28,-7.03125e-5,-0.06314453,0.117216,0.001663062887088969,0.002244363554370698,0
371.32,-5.859375e-5,-0.0517793,0.117371,0.0016560125905176009,0.0023741839189920515,0
371.36,-7.8125e-5,-0.04492578,0.1152281,0.0010771126763993266,7.03250360388528e-4,0
371.4,-6.25e-5,-0.03441211,0.1154835,2.674922047693744e-4,9.122517683359482e-4,0
371.44,-6.25e-5,0.02741601,0.1136117,-9.301972093481394e-4,-0.00054593437281071815,0
371.48,-6.25e-5,-0.01974023,0.1108688,-0.002391559070948984,-0.0026869881189742,0
371.52,-5.46875e-5,-0.05994531,0.1095173,-0.0035916813024630795,-0.0037378657868505044,0
371.56,-6.25e-5,0.1295215,0.1083323,-0.004275666580914121,-0.004658828528965606,0
371.6,-6.640625e-5,0.6612109,0.1080163,-0.004217126194457387,-0.004899391635203052,0
371.64,-5.46875e-5,-0.2163301,0.1091279,-0.003097696665424914,-0.004021753945986701,0
371.68,-5.46875e-5,-0.1900918,0.1132116,-0.0011146832259390283,-8.151743413268868e-4,0
371.72,-7.03125e-5,-0.1189492,0.1161002,8.723047550667129e-4,0.0014545390259030685,0
371.76,-5.859375e-5,-0.005849609,0.1182914,0.002048984310791624,0.0031778494048837445,0
371.8,-7.03125e-5,0.1643926,0.115859,0.0026966995502858823,0.0012776138532225266,0
371.84,-5.859375e-5,0.2353906,0.1194502,0.003548406914095527,0.0040989690858254145,0
371.88,-6.640625e-5,0.01013672,0.1189997,0.004537358265439249,0.0037530258983336988,0
371.92,-6.25e-5,-0.1995938,0.1219148,0.005382173822956648,0.006045683717895323,0
371.96,-6.640625e-5,-0.1940039,0.1214704,0.0057903712276471215,0.005706069254919352,0
372,-7.8125e-5,-0.150252,0.122594,0.005356512983048685,0.006596378093796078,0
372.04,-7.03125e-5,-0.1144316,0.1185863,0.004097091322515494,0.003465737911503981,0
372.08,-7.03125e-5,-0.09232617,0.1165047,0.0029496348408042427,0.0018453514388558521,0
372.12,-6.640625e-5,-0.08648046,0.1170596,0.0025786693669567432,0.002291785069922924,0
372.16,-6.25e-5,-0.07397265,0.1180428,0.0023589727232646417,0.0030742886634830915,0
372.2,-6.640625e-5,-0.06138281,0.1169216,0.0014459980604415825,0.00220781713132218,0
372.24,-6.640625e-5,-0.05748242,0.1124204,2.6247387905532077e-4,-0.0013076009857045775,0
372.28,-7.03125e-5,-0.04950391,0.1140462,-2.934904863935593e-4,-2.079009819793326e-5,0
372.32,-5.078125e-5,-0.03986328,0.1136973,-6.110647251290432e-4,-2.817822971268838e-4,0
372.36,-5.859375e-5,-0.03692383,0.1116734,-8.607111721106778e-4,-0.001855709394966545,0
372.4,-5.859375e-5,-0.02223242,0.1137504,-6.937774420993203e-4,-2.1558195035681552e-4,0
372.44,-4.296875e-5,0.04035547,0.1128897,-2.848888108765466e-4,-8.781023568635972e-4,0
372.48,-4.6875e-5,-0.05411719,0.1146695,2.945294412847958e-4,5.289025021140414e-4,0
372.52,-4.296875e-5,-0.08376953,0.1155691,7.608714034178186e-4,0.0012460767806924738,0
372.56,-5.46875e-5,0.8855625,0.1161697,4.5299353145183984e-4,0.0017290871109183713,0
372.6,-5.078125e-5,-0.05484766,0.1127659,-7.142883775751803e-4,-9.263389347417639e-4,0
372.64,-5.46875e-5,-0.2307676,0.1100366,-0.0016697868805739759,-0.00305322794389099,0
372.68,-3.90625e-5,-0.1708867,0.1122334,-0.0017572722097828307,-0.0013194472547405987,0
372.72,-4.296875e-5,-0.09302343,0.112423,-0.0017586382549945733,-0.0011591487340490423,0
372.76,-4.296875e-5,0.0425664,0.1117831,-0.002343133600893506,-0.0016492079488790135,0
372.8,-5.46875e-5,0.2002734,0.1083783,-0.0029766905368535843,-0.004306698158629037,0
372.84,-5.078125e-5,0.1688965,0.1100922,-0.0027897352460858906,-0.0029527538227144897,0
372.88,-5.859375e-5,-0.1199219,0.1113372,-0.0019210944435423595,-0.0019668067277972194,0
372.92,-4.296875e-5,-0.1972969,0.1142051,-0.0013423416959544544,2.908833897060769e-4,0
372.96,-4.6875e-5,-0.1613496,0.1116776,-0.0016198404903113098,-0.0016803768879478703,0
373,-5.078125e-5,-0.124332,0.110136,-0.0019746950029192736,-0.002879139167942146,0
373.04,-4.6875e-5,-0.09578906,0.1124903,-0.0019107715438502185,-0.0010246906381716602,0
373.08,-3.515625e-5,-0.08026563,0.111036,-0.0019123440430805895,-0.0021556423630584884,0
373.12,-3.90625e-5,-0.07255469,0.1115385,-0.001979932789806421,-0.0017531650039883198,0
373.16,-3.90625e-5,-0.06501172,0.1119668,-0.002230871887623654,-0.0014091235969806092,0
373.2,-3.515625e-5,-0.05898633,0.1091653,-0.0026044245498215565,-0.003596870939264721,0
373.24,-3.90625e-5,-0.05360156,0.1110602,-0.002624271957411979,-0.0021040767805934855,0
373.28,-3.125e-5,-0.04634961,0.1111353,-0.0026907588028768806,-0.0020380017406400664,0
373.32,-3.90625e-5,-0.03835156,0.1096739,-0.003118901466553244,-0.0031765805487727838,0
373.36,-2.734375e-5,-0.03854492,0.1090854,-0.0034665222355455805,-0.0036314687592695323,0
373.4,-3.515625e-5,-0.01411719,0.1078959,-0.003029200884288462,-0.0045580033792688626,0
373.44,-3.515625e-5,0.01667578,0.1126222,-0.0016951404556088798,-8.483640739933796e-4,0
373.48,-3.515625e-5,-0.07024805,0.1134637,-3.516497210609876e-4,-1.8382389261965696e-4,0
373.52,-3.515625e-5,-0.08880078,0.1153611,3.962479691855495e-4,0.0013083176895793199,0
373.56,-2.34375e-5,0.9716035,0.1152424,2.4369302128250444e-4,0.0012204161356775352,0
373.6,-2.34375e-5,-0.18014260000000001,0.1120658,-5.58526279520989e-4,-0.0012641210733323213,0
373.64,-3.125e-5,-0.229293,0.1096614,-3.5452077362938325e-4,-0.003143595848293638,0
373.68,-1.953125e-5,-0.1599668,0.1143819,0.002268729644840506,5.610375850764202e-4,0
373.72,-1.171875e-5,-0.07282422,0.1232292,0.006250176815893045,0.007500408036126545,0
373.76,-1.5625e-5,0.07992188,0.1283008,0.008854387158135368,0.01148151206960179,0
373.8,-1.953125e-5,0.2310019,0.1240481,0.009370012978927325,0.008155901581942527,0
373.84,-1.171875e-5,0.1383711,0.1252773,0.009356570550615787,0.009128375451663586,0
373.88,-3.125e-5,-0.1558516,0.1251761,0.009409980657179578,0.009059503218113798,0
373.92,-2.34375e-5,-0.2071719,0.1265662,0.008791480159838527,0.010160965251294481,0
373.96,-3.515625e-5,-0.1698809,0.1213465,0.007326450361970737,0.0060831704782908945,0
374,-7.8125e-6,-0.1328906,0.1214751,0.005596614098518489,0.0061984150227224364,0
374.04,-3.90625e-6,-0.1076465,0.1174237,0.0037835076781157022,0.003038291062989281,0
374.08,-7.8125e-6,-0.08707227,0.1161551,0.0020086170494250767,0.002059847759248122,0
374.12,-1.171875e-5,-0.08422852,0.1136214,4.141224373832793e-4,9.012519180536102e-5,0
374.16,-7.8125e-6,-0.07582812,0.1127037,-0.0011900528836245828,-6.129378386361333e-4,0
374.2,-1.171875e-5,-0.05994922,0.1092604,-0.0028231578720582452,-0.003295701243410009,0
374.24,-1.5625e-5,-0.05575195,0.1069564,-0.0037840775485590296,-0.005085984503040298,0
374.28,-1.5625e-5,-0.04361914,0.1090404,-0.0036643760051173024,-0.003437690024971665,0
374.32,-3.90625e-6,-0.03746875,0.1093327,-0.0030162018380023164,-0.003194300069149018,0
374.36,0,-0.03139258,0.1110575,-0.00228116894620721,-0.001828599348586746,0
374.4,-7.8125e-6,0.04132031,0.1120286,-0.0018660132746004979,-0.001053948896519749,0
374.44,1.171875e-5,-0.03990234,0.1110529,-0.002020150687656947,-0.001805396248462802,0
374.48,-3.90625e-6,-0.05591797,0.1102195,-0.0024106363848706803,-0.0024455918181610723,0
374.52,7.8125e-6,0.2746094,0.1099463,-0.0027190705386442742,-0.002647080351111442,0
374.56,-7.8125e-6,0.4759297,0.1088141,-0.0026282259620618005,-0.0035222841471078737,0
374.6,-3.90625e-6,-0.1826113,0.1124443,-0.002376884738265445,-6.652028623149675e-4,0
374.64,3.90625e-6,-0.141207,0.1091684,-0.0025307281741137957,-0.003221332529061482,0
374.68,7.8125e-6,-0.07285547,0.109515,-0.002498759563324017,-0.002938600492283953,0
374.72,-3.90625e-6,0.04228906,0.1107868,-0.0018103050754567952,-0.00193114674204725,0.0010074537502367032
374.76,-3.90625e-6,0.2255254,0.1113687,-5.273735374868426e-4,-0.0014647520475813617,0.0014738484447025914
374.8,0,0.2791934,0.1140481,0.0017035763291360058,6.454636325374383e-4,0.0035840641248213916
374.84,-3.90625e-6,-0.01513281,0.119224,0.004768485744660835,0.004712575802338943,0.007651176294622896
374.88,-3.90625e-6,-0.2114824,0.1232074,0.007934771383473484,0.00784573261888847,0.010784333111172422
374.92,-7.8125e-6,-0.1905254,0.1285042,0.010156949656971998,0.012009591301015875,0.014948191793299828
374.96,-3.90625e-6,-0.1444531,0.1294463,0.00983220856442146,0.012762066694490731,0.015700667186774684
375,0,-0.1115332,0.121415,0.006693699064418036,0.006483070538057656,0.009421671030341609
375.04,-1.171875e-5,-0.09741602,0.1136277,0.00327807934738402,3.963491143253958e-4,0.003334949606609349
375.08,-3.90625e-6,-0.09326757,0.1124647,0.0022926129142996363,-4.980829293911938e-4,0.0024405175628927594
375.12,-1.171875e-5,-0.08870117,0.1189237,0.003330526882689258,0.004581645543097585,0
375.16,3.90625e-6,-0.07555078,0.117912,0.004455568944811929,0.003806449626397289,0
375.2,-1.171875e-5,-0.06467773,0.1209528,0.004963177638928602,0.0062082657893863784,0
375.24,-1.5625e-5,-0.05715625,0.1197086,0.004366020957175965,0.005252414411726164,0
375.28,-7.8125e-6,-0.05116211,0.1156101,0.002846747354952863,0.002060148895770713,0
375.32,-3.90625e-6,-0.04550195,0.1148985,0.0012987068370576,0.0015229123038374974,0
375.36,-1.171875e-5,-0.02776367,0.1121891,-7.410526609036693e-5,-5.799897170531035e-4,0
375.4,-1.5625e-5,0.03960351,0.1113344,-0.001200157776326394,-0.0012292413487053268,0
375.44,-1.5625e-5,-0.04596289,0.1101164,-0.0020582089738757584,-0.0021634471560093437,0
375.48,-1.5625e-5,-0.07194336,0.1081526,-0.002319868744184111,-0.0036825639725434137,0
375.52,-1.5625e-5,0.6855918,0.1114335,-0.001821582552111532,-0.0010913869670181773,0
375.56,-1.5625e-5,0.1383047,0.1104341,-9.920332277473009e-4,-0.0018553463616842612,0
375.6,-1.171875e-5,-0.2239805,0.1126367,3.1574040214677856e-4,-1.0982260695536171e-4,0
375.64,-3.90625e-6,-0.1734961,0.116113,0.0018894440988313844,0.0026340291777722778,0
375.68,-1.953125e-5,-0.1006035,0.1162835,0.003131584782695711,0.002787160771896226,0
375.72,-3.90625e-6,0.02704883,0.1178781,0.00421398381811644,0.004056963699976237,0
375.76,-7.8125e-6,0.2017598,0.1202786,0.004932268417353806,0.005959083960429966,0
375.8,0,0.2034414,0.1182142,0.004967924596916361,0.004362488980531101,0
375.84,-2.34375e-5,-0.09590429,0.1187931,0.004725115827983798,0.004838441564042257,0
375.88,-7.8125e-6,-0.2072402,0.1180794,0.004312477711112844,0.004301998773676726,0
375.92,-3.125e-5,-0.1766621,0.1158538,0.004047663900521541,0.002581185226875303,0
375.96,-2.734375e-5,-0.1334785,0.117565,0.004613658155180217,0.003946502846626884,0
376,-2.34375e-5,-0.1060703,0.1201285,0.005629568022717147,0.0059804893779076655,0
376.04,-1.5625e-5,-0.09067187,0.1205019,0.006289836787564456,0.006298786782983469,0
376.08,-2.34375e-5,-0.08605273,0.1217133,0.006109331996576661,0.0072749160249845285,0
376.12,-3.90625e-5,-0.08385742,0.117798,0.00512233468235518,0.004233808953034293,0
376.16,-2.734375e-5,-0.06568164,0.1180589,0.0038040152669546984,0.004466739386807376,0
376.2,-1.171875e-5,-0.04924219,0.1142921,0.0023588775705715164,0.0015434028925531387,0
376.24,-2.34375e-5,-0.04047071,0.1137305,0.0010099342409798993,0.001132594500502639,0
376.28,-1.5625e-5,-0.03412695,0.1120379,-2.825997764524448e-4,-1.6452997743721665e-4,0
376.32,-3.125e-5,-0.02876953,0.1096156,-0.0015386391980867608,-0.0020336303633570734,0
376.36,-1.5625e-5,-0.02733398,0.1090133,-0.0024614969751584758,-0.0024765083110433964,0
376.4,-1.171875e-5,0.03572266,0.1079564,-0.0030341883760934955,-0.0032760997322648653,0
376.44,-4.296875e-5,-0.0271582,0.1073612,-0.0031297989458904814,-0.003714321067516776,0
376.48,-3.125e-5,-0.0544707,0.1094261,-0.0028922826815395907,-0.0020681022672592903,0
376.52,-3.90625e-5,0.2292988,0.1080948,-0.0027215741924067,-0.0030842031280724214,0
376.56,-3.90625e-5,0.650873,0.1089694,-0.0024816349914602034,-0.0023717731898112602,0
376.6,-3.515625e-5,-0.2346758,0.1089875,-0.001976594156928889,-0.002331055499062598,0
376.64,-4.296875e-5,-0.2015137,0.1105218,-0.0012512265195510324,-0.001102285387308707,0
376.68,-2.34375e-5,-0.1316152,0.1105315,-2.1010926625455718e-4,-0.0010686939510695594,0
376.72,-3.515625e-5,-0.02583984,0.1139109,0.001140915310452184,0.0016059506688113898,0
376.76,-3.90625e-5,0.1531211,0.1154092,0.002184911395726779,0.0028064142030603517,0
376.8,-2.34375e-5,0.2312617,0.1155501,0.0023913824711465454,0.0029433702348301864,0
376.84,-3.90625e-5,-0.02267383,0.1137571,0.0020525865975614286,0.0015649709510698053,0
376.88,-2.734375e-5,-0.2079863,0.1132747,0.0018837314424728754,0.0012140869670385535,0
376.92,-3.125e-5,-0.1909746,0.1139331,0.0022643329332048987,0.0017575710549661689,0
376.96,-2.34375e-5,-0.1516816,0.1152076,0.0030584923251799337,0.0027842412278277196,0
377,-4.296875e-5,-0.1211816,0.1169543,0.003849796066602316,0.004181468619532412,0
377.04,-3.90625e-5,-0.09670507,0.1173244,0.0041549476568591825,0.004500356411798658,0
377.08,-4.6875e-5,-0.09216601,0.1164844,0.0038675858558921716,0.003871460189388913,0
377.12,-3.125e-5,-0.09373632,0.1151574,0.0033505531116581476,0.0028614573791168004,0
377.16,-3.90625e-5,-0.08795703,0.1147314,0.003021890693752433,0.0025581239240447663,0
377.2,-3.515625e-5,-0.07724609,0.1149276,0.002957036352413674,0.002742884252963889,0
377.24,-5.46875e-5,-0.06742188,0.1154482,0.0028333101949279092,0.003182347388313223,0
377.28,-4.6875e-5,-0.05143945,0.1151828,0.0020697693738307554,0.003006234374449346,0
377.32,-4.296875e-5,-0.04904297,0.1115796,5.790857218170402e-4,2.143778649090733e-4,0
377.36,-4.296875e-5,-0.04299414,0.1076607,-3.07580526266231e-4,-0.002824895236295531,0
377.4,-7.03125e-5,-0.02928125,0.1121579,2.3462558628129e-4,7.320523403167675e-4,0
377.44,-5.46875e-5,0.03279102,0.1122938,0.001286926984138014,8.706624534429414e-4,0
377.48,-5.46875e-5,-0.05790235,0.1131491,0.002619616762469782,0.0015732866936745142,0
377.52,-5.078125e-5,-0.08621485,0.1176916,0.0042018117573938115,0.00516624266424298,0
377.56,-5.859375e-5,0.8555644,0.1184091,0.00498046829902709,0.00576192150880519,0
377.6,-5.078125e-5,-0.01675391,0.1169334,0.0046549928368765795,0.0046394468830302715,0
377.64,-4.6875e-5,-0.2354492,0.117338,0.003248146248318309,0.004991512589302985,0
377.68,-5.078125e-5,-0.1827637,0.1162992,-0.0010133062688241481,0.004213007768655314,0
377.72,-4.296875e-5,-0.2049863,0.1012663,-0.0095209137653993,-0.007533619494922052,0
377.76,-6.25e-5,-0.1365723,0.0843009,-0.02007337326426879,-0.02079615930157011,0
377.8,-6.25e-5,0.08776953,0.06676215,-0.027624925507307836,-0.03451138374609547,0
377.84,-6.640625e-5,0.1262773,0.07447672,-0.02966610292884687,-0.02843812322614899,0
377.88,-4.6875e-5,-0.1434219,0.08062339,-0.030902134920590473,-0.0235982975648257,0
377.92,-6.25e-5,-0.2162031,0.06758468,-0.035704325241487034,-0.03379999040221188,0
377.96,-4.296875e-5,-0.1619453,0.05733168,-0.041806787506941126,-0.04182353933250405,0
378,-4.296875e-5,-0.111291,0.0510492,-0.04582088942120658,-0.046741539423380364,0
378.04,-4.6875e-5,-0.07671289,0.04651048,-0.04512653943263802,-0.0503001355986562,0
378.08,-5.859375e-5,-0.05961914,0.06188617,-0.0386009486191429,-0.0382574588473397,0
378.12,-4.296875e-5,-0.05594336,0.07583313,-0.029064655234212648,-0.02734068410771654,0
378.16,-6.25e-5,-0.03864063,0.08790574,-0.019518102200037628,-0.017897371071499794,0
378.2,-7.03125e-5,-0.03494922,0.1000774,-0.011240854489824474,-0.00837924756887541,0
378.24,-6.640625e-5,-0.02238477,0.1076307,-0.005462549655044775,-0.0024823879491286185,0
378.28,-6.640625e-5,-0.02126172,0.1090801,-0.0023700870208239926,-0.0013702497340857384,0
378.32,-5.46875e-5,-0.01146289,0.1112549,-0.0011252001916211118,3.1025160508910767e-4,0
378.36,-4.6875e-5,-0.01396484,0.1083298,-6.266145654745752e-4,-0.002006577011399425,0
378.4,-6.25e-5,-0.009521484,0.1122201,-9.455355737396506e-5,0.0010182913500016988,0
378.44,-4.6875e-5,0.05033008,0.1114471,1.3223097052741054e-5,3.8815527259486346e-4,0
378.48,-7.03125e-5,-0.02331836,0.1103183,-4.912210981553541e-4,-5.208009408948994e-4,0
378.52,-7.8125e-5,-0.045125,0.1088459,-8.781962203753614e-4,-0.0016991582915309093,0
378.56,-6.640625e-5,0.1509688,0.109685,-6.511628588843562e-4,-0.0010659952299310782,0
378.6,-7.03125e-5,0.6673047,0.1112078,2.426568902287094e-5,1.0289391259363878e-4,0
378.64,-7.03125e-5,-0.1989863,0.1125795,5.312041919909909e-4,0.0011533648333522206,0
378.68,-6.640625e-5,-0.1765781,0.1122101,4.3375049800439776e-4,8.393173171624324e-4,0
378.72,-6.640625e-5,-0.110834,0.1098933,1.8015077719848896e-4,-0.001000999299845672,0
378.76,-5.46875e-5,0.001560547,0.1105897,8.414804763212427e-4,-4.796821483521312e-4,0
378.8,-7.421875e-5,0.1803027,0.1148777,0.0024098416664045867,0.002856709790679217,0
378.84,-5.859375e-5,0.2753223,0.1164746,0.003840598849450674,0.004084227886679628,0
378.88,-6.25e-5,0.01935352,0.1164368,0.0050095899278448765,0.004031088332914893,0
378.92,-7.421875e-5,-0.2100488,0.1193707,0.006365613284509835,0.006307848906086678,0
378.96,-6.25e-5,-0.2041348,0.1218605,0.007368396560335323,0.00823751332630749,0
379,-6.25e-5,-0.1564668,0.1212246,0.007251369021394785,0.007718507591828765,0
379.04,-7.03125e-5,-0.1250762,0.1190234,0.0061898731472167946,0.0059738149201365755,0
379.08,-7.421875e-5,-0.1066035,0.1171442,0.004808321635867446,0.004482454140175444,0
379.12,-5.859375e-5,-0.09782618,0.1150442,0.003592052719568232,0.002818734859496957,0
379.16,-5.46875e-5,-0.09228125,0.1149703,0.0026562311882922032,0.002743548627453407,0
379.2,-5.859375e-5,-0.08223242,0.1142058,0.0015205808579689221,0.002127492915903169,0
379.24,-4.6875e-5,-0.07033008,0.1105108,1.4362266018143433e-4,-7.851971496880039e-4,0
379.28,-5.46875e-5,-0.06010938,0.1090191,-4.552245097162678e-4,-0.0019710312672684806,0
379.32,-6.25e-5,-0.0575332,0.1121806,-4.246632054084682e-5,4.900720602514313e-4,0
379.36,-3.90625e-5,-0.05766602,0.1137358,-5.2534165827851825e-5,0.0016922104849615668,0
379.4,-3.125e-5,-0.04952539,0.1085357,-8.300255948512356e-4,-0.0024002904229358584,0
379.44,-4.296875e-5,-0.02964258,0.1105479,-0.0013232662799898393,-8.400602914085333e-4,0
379.48,-4.296875e-5,0.01712109,0.110564,-0.0019146240181900941,-8.445362732899931e-4,0
379.52,-4.6875e-5,-0.0685625,0.106554,-0.002875951338453087,-0.004004863857160711,0
379.56,-4.6875e-5,-0.08392969,0.1069959,-0.0032089611462856613,-0.003676357179427562,0
379.6,-3.90625e-5,0.82725,0.1085649,-0.00290176493776074,-0.0024649930162758266,0
379.64,-3.515625e-5,-0.08301562,0.107706,-0.0023327326679259026,-0.003157042970067197,0
379.68,-4.296875e-5,-0.1901504,0.1100662,-0.0012846842939110911,-0.0013264121043844487,0
379.72,-4.6875e-5,-0.1365215,0.1120622,1.8869503378714957e-5,2.1854380639904346e-4,0
379.76,-5.46875e-5,-0.05911328,0.1134895,0.0011269879165714536,0.0013177785470787453,0
379.8,-4.296875e-5,0.0771875,0.1142282,0.002003489692710815,0.0018774862751768965,0
379.84,-4.6875e-5,0.2587168,0.1146406,0.0029953842051468507,0.0021817316157132557,0
379.88,-3.90625e-5,0.2177676,0.1172941,0.004335626154370897,0.004242929666877589,0
379.92,-4.6875e-5,-0.1194609,0.120115,0.005376964841415393,0.00643600843708135,0
379.96,-3.515625e-5,-0.2092266,0.1187967,0.005508571714159573,0.0053857358835043626,0
380,-3.90625e-5,-0.1673809,0.1188088,0.004908221335298617,0.00537910156060768,0
380.04,-2.734375e-5,-0.1235449,0.1158439,0.004053759302525583,0.003039898985814853,0
380.08,-2.734375e-5,-0.09706836,0.1163967,0.003379128825920987,0.0034584030845312068,0
380.12,-2.734375e-5,-0.0841875,0.1163036,0.002468808735921277,0.0033711871342642905,0
380.16,-3.125e-5,-0.08353516,0.1118142,0.0012492538259440734,-1.6138302732274668e-4,0
380.2,-3.515625e-5,-0.07278516,0.1113466,9.543279596370767e-4,-5.416308509845636e-4,0
380.24,-3.515625e-5,-0.0619668,0.115463,0.0015670584743530747,0.00267104449786534,0
380.28,-3.125e-5,-0.05379492,0.1146701,0.001775760626554123,0.0020361578871988793,0
380.32,-3.125e-5,-0.04975,0.1123284,0.001879252809685709,1.876199097715576e-4,0
380.36,-3.125e-5,-0.04811523,0.1168218,0.0023967332092861312,0.0036965665854423045,0
380.4,-2.734375e-5,-0.04485938,0.1152251,0.0025033618563845626,0.0024325843112593627,0
380.44,-2.734375e-5,-0.04269727,0.115295,0.0019363166258953332,0.002475292552003822,0
380.48,-2.34375e-5,0.02397461,0.1125295,0.001207936977013411,2.959621866783824e-4,0
380.52,-2.34375e-5,-0.02615625,0.11188,0.0011992146112149442,-2.2476855332833855e-4,0
380.56,-2.34375e-5,-0.05327929,0.1154578,0.0020789848851833635,0.002567887050570515,0
380.6,-1.953125e-5,0.151123,0.1165221,0.0027648607825733382,0.003390828772399301,0
380.64,-2.34375e-5,0.757332,0.1160748,0.002631614436556356,0.003029490986673996,0
380.68,-1.953125e-5,-0.2348828,0.1143856,0.001989567259095046,0.0016952115790346788,0
380.72,-2.34375e-5,-0.2079141,0.1139544,0.001237805117819833,0.0013472393616582338,0
380.76,-1.5625e-5,-0.1377969,0.1119251,7.052223251483733e-4,-2.531351068465076e-4,0
380.8,-1.5625e-5,-0.04020898,0.1139567,3.666632378328982e-4,0.0013294454456021254,0
380.84,-3.90625e-6,0.1307207,0.110685,1.0369352776582477e-4,-0.0012445710066188566,0
380.88,-2.734375e-5,0.2305332,0.1119678,5.855054986396125e-4,-2.48897844812908e-4,0
380.92,-3.515625e-5,0.02123242,0.115078,0.0018070945395002667,0.002179079839643581,0
380.96,-3.515625e-5,-0.1794766,0.1165648,0.002762730296697252,0.003334956116964306,0
381,-1.5625e-5,-0.166375,0.1168825,0.002879678254601444,0.003575000756561009,0
381.04,-2.34375e-5,-0.12828319999999999,0.1153179,0.0021767915683292153,0.002340234692716556,0
381.08,-1.953125e-5,-0.098125,0.1133776,0.0011164969913733853,8.113588513475442e-4,0
381.12,-2.734375e-5,-0.08025976,0.1130253,-6.954170544241114e-5,5.273096225531424e-4,0
381.16,-3.515625e-5,-0.06766016,0.1102926,-0.0014941091606626021,-0.0016224499463369354,0
381.2,-3.125e-5,-0.06223437,0.1087759,-0.0030030457326595413,-0.002819346500409624,0
381.24,-1.953125e-5,-0.05601758,0.1063204,-0.004282214854155091,-0.004752533972538152,0
381.28,-1.5625e-5,-0.04257813,0.1052178,-0.004875062044098538,-0.005626048449560811,0
381.32,-1.953125e-5,-0.03686914,0.106863,-0.0047192682471839465,-0.0043466841089957655,0
381.36,-1.5625e-5,-0.02923633,0.1077382,-0.004567905033339794,-0.0036715438902618033,0
381.4,-1.5625e-5,-0.02453906,0.105781,-0.004637259964120591,-0.005217061565483181,0
381.44,-2.34375e-5,-0.02169336,0.1068061,-0.004346949283546604,-0.00442583117842822,0
381.48,-2.734375e-5,-0.003574219,0.1086696,-0.003858575351801419,-0.00297814910360795,0
381.52,-3.125e-5,0.05777539,0.1085056,-0.0038905288021769493,-0.0031201225939962757,0
381.56,-3.125e-5,-0.03699805,0.1055971,-0.004012498795891002,-0.005413769542785843,0
381.6,-1.953125e-5,-0.0647207,0.1081693,-0.003259018699691377,-0.0034124156899669284,0
381.64,-3.125e-5,0.9141719,0.1112852,-0.0021705988866180807,-9.854404353487705e-4,0
381.68,-2.34375e-5,8.828125e-4,0.111241,-0.0018822580580348655,-0.001035555103367378,0
381.72,-3.515625e-5,-0.2222695,0.1079838,-0.0018227084474063257,-0.0036042314304788464,0
381.76,-1.953125e-5,-0.1685234,0.1119199,-9.917964600917178e-4,-5.352593375238758e-4,0
381.8,-3.515625e-5,-0.08877149,0.1123997,2.838170809740817e-4,-1.754721241793375e-4,0
381.84,-3.90625e-6,0.04126758,0.1159533,0.001278193273444768,0.0025935784271736463,0
381.88,-2.734375e-5,0.2119473,0.1146806,0.0015225235503887177,0.0015801114438164885,0
381.92,-1.171875e-5,0.2039414,0.1133614,0.0015447369224768862,5.304465929775929e-4,0
381.96,-2.34375e-5,-0.08740234,0.1157289,0.0019239687934658894,0.0023705568753498146,0
382,-1.953125e-5,-0.1884941,0.1173561,0.001617536734939065,0.003630783160221712,0
382.04,-2.734375e-5,-0.1544238,0.1115915,2.028090949772398e-4,-9.022220917520492e-4,0
382.08,-2.34375e-5,-0.1129629,0.1104099,-8.854250810599543e-4,-0.0018431449324107123,0
382.12,-2.734375e-5,-0.09312109,0.1104995,-7.003811454298889e-4,-0.0017879730142804653,0
382.16,-1.953125e-5,-0.08102344,0.1144048,1.1454263064878367e-4,0.0012577200588999653,0
382.2,-2.734375e-5,-0.07090234,0.1126723,8.468024204309958e-4,-1.153813719130805e-4,0
382.24,-2.734375e-5,-0.05186914,0.1143855,0.001990746280885465,0.0012122908843288501,0
382.28,-2.34375e-5,-0.04305274,0.1195291,0.003143294007635109,0.005228954127020541,0
382.32,-7.8125e-6,-0.0335332,0.1175811,0.00284083642297532,0.0036879395345711125,0
382.36,-1.5625e-5,-0.02124609,0.114256,0.001311812335082127,0.0010681154949840094,0
382.4,-3.125e-5,-0.01574609,0.1118038,-2.074253773830172e-4,-8.673476073285286e-4,0
382.44,-2.34375e-5,-0.00765625,0.111647,-0.0013549572783725183,-0.0010037783586145377,0
382.48,-2.734375e-5,0.01466797,0.1107009,-0.0027276227894515058,-0.0017590329391324253,0
382.52,-7.8125e-6,0.05300391,0.1066095,-0.004475680898496664,-0.004979899146738718,0
382.56,-1.953125e-5,-0.03100976,0.1040678,-0.005509939936409327,-0.0069868734415124735,0
382.6,-3.125e-5,-0.04588281,0.105604,-0.004929560093952496,-0.005798631276861073,0
382.64,-2.34375e-5,0.9438106,0.1103289,-0.003521602573901889,-0.002111953444057036,0.0036866778328040373
382.68,-2.34375e-5,-0.04096289,0.1098001,-0.0024675868718209244,-0.00254353886350717,0.0032550924133539034
382.72,-2.734375e-5,-0.134582,0.109135,-0.0010316046521623378,-0.003082359975717246,0.0027162713011438275
382.76,-2.34375e-5,-0.07515821,0.11652,0.0012991496714312475,0.002688122580205486,0.00848675385706656
382.8,-3.515625e-5,0.009607422,0.1174652,0.003306984416853926,0.0034114167660582945,0.009210048042919368
382.84,-3.515625e-5,0.1566367,0.1171106,0.0052977882054950675,0.0031164467473060674,0.00891507802416714
382.88,-3.125e-5,0.3276601,0.1246113,0.00794450003327041,0.008979072143588526,0.014777703420449598
382.92,-3.515625e-5,0.2812422,0.1266859,0.0099807595413003,0.010590056093251263,0.016388687370112336
382.96,-3.515625e-5,-0.03689258,0.1263112,0.010967609847639146,0.010282913987851016,0.016081545264712088
383,-4.296875e-5,-0.1270781,0.1298716,0.010896375994721229,0.01306178685151158,0.018860418128372653
383.04,-3.90625e-5,-0.09795507,0.1237549,0.009461667286231023,0.008257664767799518,0.01405629604466059
383.08,-3.515625e-5,-0.04355078,0.1226207,0.007630816492623847,0.007360205819718133,0.013158837096579206
383.12,-1.953125e-5,0.001099609,0.1195412,0.006279975506384726,0.004939153587857752,0.010737784864718825
383.16,-5.859375e-5,0.02689258,0.1206468,0.005298737403743069,0.005799226207564404,0.011597857484425479
383.2,-4.296875e-5,0.04801758,0.1184879,0.004118541522237958,0.004101450063686071,0.009900081340547144
383.24,-3.515625e-5,0.06978516,0.1167588,0.002486227129540923,0.002741205394691508,0.008539836671552581
383.28,-5.078125e-5,0.08357226,0.1140034,5.60668711909504e-4,5.769641257818716e-4,0.0063755954026429446
383.32,-4.6875e-5,0.0949375,0.1105724,-0.0012076031526785146,-0.0021167315510071997,0.0036818997258538737
383.36,-3.90625e-5,0.09088867,0.110046,-0.002289264502988251,-0.0025340919870091043,0.003264539289851969
383.4,-5.859375e-5,0.0790293,0.1086438,-0.0024637323429403447,-0.0036383179372209548,0.0021603133396401186
383.44,-5.078125e-5,0.06146484,0.1117505,-0.001930266369224171,-0.001208974275094414,0
383.48,-5.078125e-5,0.1077871,0.1118227,-0.001445801173308818,-0.0011583086524525907,0
383.52,-4.6875e-5,0.04274414,0.112757,-0.0016130342474544237,-4.320989022447463e-4,0
383.56,-5.46875e-5,-6.523438e-4,0.1095098,-0.0022563831841302265,-0.002983480496634817,0
383.6,-5.078125e-5,0.1981719,0.1103771,-0.0028405671969467406,-0.0023103257645458748,0
383.64,-4.6875e-5,0.7782539,0.1092663,-0.003425058754108025,-0.003188000663219239,0
383.68,-5.078125e-5,-0.1895215,0.1082537,-0.0041547512961180415,-0.003989208374858517,0
383.72,-4.6875e-5,-0.1637715,0.1061422,-0.004446775378536861,-0.005652380561553488,0
383.76,-4.296875e-5,-0.08514844,0.1073876,-0.0034275197021168056,-0.004685256273103916,0
383.8,-5.078125e-5,0.02954102,0.1131535,-0.0014818388704710172,-1.7563545317445805e-4,0
383.84,-5.859375e-5,0.222998,0.1126627,4.5694588880106643e-4,-5.701387031946716e-4,0
383.88,-5.078125e-5,0.3293418,0.1171288,0.0024589128067886725,0.0029205613916553383,0
383.92,-6.25e-5,0.1236895,0.1212321,0.003595991589882737,0.006127354572137957,0
383.96,-6.25e-5,-0.08599218,0.1170432,0.002893684727814388,0.0028355633113406466,0
384,-4.6875e-5,-0.08662305,0.1138993,0.0017063367289979572,3.63306699977575e-4,0
384.04,-4.6875e-5,-0.05314258,0.1148097,0.0013185860805811135,0.0010689292804831672,0
384.08,-6.25e-5,-0.02946289,0.1160836,0.001131862396206339,0.0020596374825403193,0
384.12,-5.859375e-5,-0.01630273,0.1133326,6.205073699511554e-4,-1.0410670028117556e-4,0
384.16,-7.8125e-5,-0.0153418,0.112305,7.241261253908241e-4,-9.170402714408143e-4,0
384.2,-5.859375e-5,-0.01540625,0.116274,0.0019032590435152695,0.0021862921801524358,0
384.24,-6.25e-5,-0.01055469,0.117821,0.0032571965585363218,0.003391569574115562,0
384.28,-5.859375e-5,-0.006035156,0.1198567,0.003953917068322201,0.004980433048877089,0
384.32,-7.421875e-5,-0.002501953,0.1190842,0.003515578111052326,0.004368973311974979,0
384.36,-7.421875e-5,-0.001451172,0.1162724,0.002017056003804134,0.0021597692783474646,0
384.4,-8.203125e-5,-0.003882813,0.1123933,4.7039980378721336e-4,-8.856595996477261e-4,0
384.44,-7.421875e-5,0.03650781,0.1133625,-4.1621168067531406e-4,-1.3105728786006737e-4,0
384.48,-6.25e-5,0.04032227,0.1120015,-9.687655076556248e-4,-0.001202921766941454,0
384.52,-5.078125e-5,-0.02015039,0.1114186,-0.0012941939692700656,-0.0016650896376672025,0
384.56,-6.25e-5,8.125e-4,0.1120421,-0.0012753549199199766,-0.0011819258529774757,0
384.6,-7.03125e-5,1.008473,0.1135954,-0.0016130968601314668,2.984261611666202e-5,0
384.64,-6.640625e-5,-0.1664727,0.1098724,-0.00284772690637784,-0.002894028148603871,0
384.68,-8.203125e-5,-0.1912637,0.1067152,-0.003947812081398481,-0.005374873330547997,0
384.72,-5.859375e-5,-0.137248,0.1082708,-0.0038527808405661294,-0.004162603232215669,0
384.76,-7.8125e-5,-0.0499375,0.1099086,-0.002928363048898071,-0.0028865609026597137,0
384.8,-5.859375e-5,0.1070215,0.1107954,-0.0015728629153892832,-0.002199619618243241,0
384.84,-8.203125e-5,0.2567734,0.1148786,-7.832391177583294e-5,9.923610816222044e-4,0
384.88,-6.25e-5,0.1345918,0.1156025,7.265940925623136e-4,0.0015514282207485025,0
384.92,-7.03125e-5,-0.1480664,0.1123421,0.0014026720883992374,-0.001012214387840222,0
384.96,-7.03125e-5,-0.1947285,0.117795,0.0031750096523185996,0.003253599813873952,0
385,-7.8125e-5,-0.1578965,0.1210349,0.005294619561930128,0.005785344880666249,0
385.04,-7.421875e-5,-0.1356172,0.1238259,0.006292499872230087,0.00796614896576543,0
385.08,-6.640625e-5,-0.1210781,0.1223262,0.005351955911600574,0.00678509537583455,0
385.12,-6.25e-5,-0.1104648,0.1177065,0.0025705001041191095,0.003159610005894003,0
385.16,-7.03125e-5,-0.1045117,0.111308,-8.286088785855189e-4,-0.0018596267982695456,0
385.2,-7.03125e-5,-0.0805,0.1073878,-0.00322147239328772,-0.004936628162779361,0
385.24,-6.25e-5,-0.07450195,0.1083154,-0.00403342420755182,-0.004214629990496079,0
385.28,-7.03125e-5,-0.07414063,0.109034,-0.004122563101368576,-0.003657114778850099,0
385.32,-7.8125e-5,-0.07258399,0.1087342,-0.004313530483307163,-0.0038984144760361734,0
385.36,-7.421875e-5,-0.07250586,0.1076823,-0.004593509661078481,-0.004729837211067305,0
385.4,-7.8125e-5,-0.03431641,0.1077786,-0.00463372783148386,-0.004662030330577149,0
385.44,-6.640625e-5,-0.003314453,0.1091357,-0.00465248408325531,-0.0036067255388281733,0
385.48,-7.03125e-5,-0.09358203,0.1076039,-0.005092897669450625,-0.004816353961389684,0
385.52,-7.03125e-5,-0.1004863,0.1045635,-0.0050676443647946845,-0.00720920655764494,0
385.56,-7.421875e-5,0.9401973,0.1094671,-0.0036137713201860027,-0.0033765700029777758,0
385.6,-6.25e-5,-0.2100859,0.1126904,-0.0016927813021622878,-8.615113090310209e-4,0
385.64,-7.8125e-5,-0.2527793,0.1135713,-2.5644019497774356e-4,-1.8259730721254184e-4,0
385.68,-6.640625e-5,-0.1924102,0.1154161,7.624192820178129e-4,0.0012518072941051272,0
385.72,-5.46875e-5,-0.1005332,0.1158166,0.0013751027193922001,0.0015543453454067225,0
385.76,-5.46875e-5,0.04510547,0.1161063,0.0016141050850785113,0.0017702821451326136,0
385.8,-7.03125e-5,0.1878262,0.1146029,0.002061156956912575,5.810395455004432e-4,0
385.84,-6.25e-5,0.1186543,0.1182389,0.0031530480341082617,0.0034202283568045854,0
385.88,-6.25e-5,-0.1621621,0.1206171,0.003957053415813185,0.005274074591929,0
385.92,-6.640625e-5,-0.1501406,0.1181606,0.003811383741827505,0.003339242559811524,0
385.96,-6.25e-5,-0.03555664,0.1193388,0.0029494715840973564,0.004253870848874716,0
386,-6.640625e-5,-0.01139844,0.1152372,0.0013928310783151562,0.0010307836267452579,0
386.04,-5.859375e-5,-0.01438867,0.1134328,-4.1834620372571457e-4,-3.915606164699936e-4,0
386.08,-6.640625e-5,-0.03211133,0.1111686,-0.002074388934223424,-0.0021743649086624073,0
386.12,-7.03125e-5,-0.04733789,0.1084652,-0.003227454722468156,-0.0043017642051602824,0
386.16,-5.46875e-5,-0.05709765,0.1084154,-0.003153035409280375,-0.004349910936117023,0
386.2,-5.46875e-5,-0.06236524,0.1127884,-0.0022391390311053395,-9.32086917961102e-4,0
386.24,-5.46875e-5,-0.06484375,0.1129462,-0.001945045740119202,-8.183477755480057e-4,0
386.28,-6.25e-5,-0.06154883,0.1101147,-0.002397046132170074,-0.0030477965379103592,0
386.32,-5.078125e-5,-0.05638476,0.1102467,-0.002515318620140975,-0.00295489038392504,0
386.36,-5.078125e-5,0.007464844,0.1118209,-0.0021414115659425205,-0.0017320326495652324,0
386.4,-6.640625e-5,-0.07418945,0.1130675,-0.0021622530222588764,-7.662262923678653e-4,0
386.44,-5.46875e-5,-0.0984082,0.1090578,-0.0026112573440157856,-0.003920508584152233,0
386.48,-5.859375e-5,0.3210488,0.1107427,-0.002496577652711137,-0.002611896189040134,0.0021233647381924447
386.52,-5.078125e-5,0.4540723,0.1117681,-0.0017401173335252014,-0.0018206223754487385,0.00291463855178384
386.56,-3.515625e-5,-0.2655332,0.1130866,-7.821237673505357e-4,-7.998998575426738e-4,0.003935361069689905
386.6,-5.078125e-5,-0.2267422,0.1152461,7.934480078157253e-6,8.798848893540742e-4,0.005615145816586653
386.64,-3.90625e-5,-0.1543281,0.1140822,4.389129105344583e-4,-4.512272281914349e-5,0.004690138204413435
386.68,-7.03125e-5,-0.04002344,0.11492,0.0010082252574178593,5.988253516348303e-4,0.005334086278867409
386.72,-4.6875e-5,0.1276191,0.1168634,0.0018409767365067321,0.0021094540396826528,0.006844714966915232
386.76,-5.46875e-5,0.1779941,0.115342,0.003239235009211157,9.046530831088098e-4,0.0056399140103413885
386.8,-6.25e-5,-0.07001563,0.1215981,0.0057689094502678204,0.005796117426418214,0.010531378353650794
386.84,-5.46875e-5,-0.2286074,0.1270201,0.008069379841923272,0.010034716888334502,0.014769977815567081
386.88,-4.6875e-5,-0.204166,0.1253594,0.008732015652939368,0.008723373415637309,0.013458634342869888
386.92,-5.078125e-5,-0.1679277,0.1245342,0.008421971141746084,0.008068285142525064,0.012803546069757643
386.96,-6.25e-5,-0.1474199,0.124138,0.007889446628763907,0.007750727750872353,0.012485988678104932
387,-5.078125e-5,-0.1254707,0.1235311,0.007026323091260767,0.007269244530695026,0.012004505457927604
387.04,-4.6875e-5,-0.1154805,0.121382,0.005698971675512921,0.005580109554131668,0.010315370481364248
387.08,-3.515625e-5,-0.1038379,0.1190635,0.00417650853295074,0.0037590775224510217,0.0084943384496836
387.12,-3.90625e-5,-0.08750977,0.1179546,0.0026344513874583648,0.002886741961216332,0.007622002888448911
387.16,-4.296875e-5,-0.07169531,0.115659,8.602967804921956e-4,0.0010847088315817988,0.005819969758814377
387.2,-2.734375e-5,-0.05764062,0.1131372,-0.0012711532069322417,-8.944519863911775e-4,0.003840808940841401
387.24,-1.953125e-5,-0.04988477,0.1084008,-0.003177304682749836,-0.00460959112073463,1.2566980649794841e-4
387.28,-2.734375e-5,-0.006390625,0.1095829,-0.004331867563462631,-0.003686448175807728,0.0010488127514248508
387.32,-3.90625e-5,0.003097656,0.1082499,-0.005363291789670525,-0.004735260927232579,0
387.36,-3.515625e-5,-0.07149024,0.10479,-0.006285451984307282,-0.007451917961344124,0
387.4,-3.125e-5,-0.05119336,0.1062287,-0.00630884599200886,-0.006330154873142068,0
387.44,-3.515625e-5,0.9144942,0.1056148,-0.005061641040941522,-0.0068182504731150164,0
387.48,-2.734375e-5,-0.2054355,0.1111503,-0.0024294343983269255,-0.002487429873042178,0
387.52,-3.515625e-5,-0.2235293,0.1160681,7.327388973003511e-4,0.0013588352755664797,0
387.56,-2.34375e-5,-0.1631738,0.1192299,0.0033748407149468904,0.003828935590018767,0
387.6,-2.734375e-5,-0.06899805,0.1216719,0.005223384819320826,0.005735450430910197,0
387.64,-3.515625e-5,0.08344922,0.1231559,0.0061048331019739575,0.006891976110884131,0
387.68,-3.515625e-5,0.2034824,0.1221903,0.005974996711047156,0.0061295565754358695,0
387.72,-2.34375e-5,0.08804492,0.1204972,0.005347996973897233,0.004797879513078259,0
387.76,-2.734375e-5,-0.1781133,0.1222337,0.004088931386702097,0.006155132635758406,0
387.8,-3.515625e-5,-0.2042871,0.1148761,0.0020262342321871857,3.852643244475396e-4,0
387.84,-3.125e-5,-0.1685742,0.112791,8.530971428627117e-4,-0.0012518776952956195,0
387.88,-3.125e-5,-0.1376094,0.1168251,0.001175681725078848,0.001907104331268389,0
387.92,-3.125e-5,-0.1192871,0.1155807,0.001938806099081338,9.290191954525653e-4,0
387.96,-3.125e-5,-0.1097852,0.1193289,0.0026159274586297766,0.003864356358944585,0
388,-3.90625e-5,-0.1038848,0.1187812,0.0024033096690005548,0.0034331122368093997,0
388.04,-1.953125e-5,-0.09217969,0.1152805,0.0012426788280982014,6.878041081623886e-4,0
388.08,-1.5625e-5,-0.07957227,0.1154341,-2.747410476494106e-4,8.069003519700217e-4,0
388.12,-1.953125e-5,-0.06844141,0.111895,-0.002357996838795258,-0.0019682702291528766,0
388.16,-2.734375e-5,-0.06644922,0.10656499999999999,-0.004288864979645854,-0.0061474862236490105,0
388.2,-2.734375e-5,-0.05577344,0.1078369,-0.004876725807808845,-0.005153003726843396,0
388.24,-2.734375e-5,0.01644727,0.1078292,-0.0041373236844827336,-0.005162304896409666,0
388.28,-1.953125e-5,-0.06460351,0.1117036,-0.0025803822813199816,-0.002129572472270839,0
388.32,-2.34375e-5,-0.08716601,0.1138911,-9.91648508463801e-4,-4.193941580163204e-4,0
388.36,-2.734375e-5,0.373584,0.1146835,1.916085382126152e-4,1.972173893410115e-4,0
388.4,-2.34375e-5,0.3459824,0.1168862,8.99421860171525e-4,0.0019192746070216527,0
388.44,-3.125e-5,-0.2334727,0.1164786,6.86678674487918e-4,0.001595642203303132,0
388.48,-1.953125e-5,-0.1917656,0.1141894,-4.8316327364554795e-4,-2.025648215838447e-4,0
388.52,-1.953125e-5,-0.1159414,0.1111494,-0.0018187712091495877,-0.002589292261015751,0
388.56,-2.734375e-5,0.006355469,0.1101204,-0.0023390673154590194,-0.0034001763183871304,0
388.6,-1.953125e-5,0.1732031,0.1113187,-0.001577334570651051,-0.002465805831956785,0
388.64,-2.34375e-5,0.2083164,0.1138229,4.163520064488797e-4,-5.082405337054611e-4,0
388.68,-1.171875e-5,-0.0688457,0.1194862,0.002918000172877838,0.003925394983854165,0
388.72,-2.34375e-5,-0.2350898,0.1219925,0.0045348642796076465,0.005885145944857805,0
388.76,-3.515625e-5,-0.2179785,0.120712,0.0047577274091692235,0.004877675051223106,0
388.8,-2.34375e-5,-0.1683691,0.1192669,0.004455504580954244,0.0037419584839459108,0
388.84,-7.8125e-6,-0.1375996,0.1205378,0.0041121386092707254,0.004735674845762159,0
388.88,-7.8125e-6,-0.1228926,0.11996419999999999,0.00300023984348502,0.004284392015680128,0
388.92,-3.90625e-6,-0.116832,0.1158015,6.692045040503225e-4,0.0010205947912034724,0
388.96,-3.90625e-6,-0.1095508,0.1100521,-0.001764976309489263,-0.003486720776575869,0
389,-3.90625e-6,-0.08958593,0.1095412,-0.0028446342094796432,-0.0038885712479561183,0
389.04,-1.5625e-5,-0.07842773,0.1124773,-0.0030367222115178726,-0.0015892249500385628,0
389.08,-1.953125e-5,-0.06842969,0.1096541,-0.003497316023528579,-0.003804356299586743,0
389.12,-2.34375e-5,-0.06405859,0.1092341,-0.0039234865613706855,-0.004136423847834176,0
389.16,-1.5625e-5,-0.04022461,0.1091786,-0.003758996430975206,-0.004183444009873606,0
389.2,-2.34375e-5,0.018375,0.1110005,-0.003162333249941642,-0.0027595902506022617,0
389.24,-1.953125e-5,-0.08104492,0.110903,-0.002325136960525761,-0.002840627121673526,0
389.28,-2.34375e-5,-0.1154863,0.1145119,-0.0016311225461151091,-1.69800744668135e-5,0
389.32,-3.90625e-5,0.8934981,0.1124214,-0.0016267200143690638,-0.001660611851141546,0
389.36,-3.515625e-5,-0.1308223,0.1126743,-0.0021892051850753652,-0.0014677134244573534,0
389.4,-3.125e-5,-0.246959,0.1094605,-0.0026182424993634787,-0.003992298812019497,0
389.44,-4.296875e-5,-0.1900332,0.1113098,-0.002154578221379849,-0.0025489801257807536,0
389.48,-4.296875e-5,-0.1101641,0.1129925,-7.598076436713053e-4,-0.0012366475910593896,0
389.52,-2.734375e-5,0.01938281,0.1165661,9.030442156132566e-4,0.0015576057397372796,0
389.56,-4.296875e-5,0.1717871,0.1188179,0.001839704694585531,0.003316058170967657,0
389.6,-3.515625e-5,0.1370762,0.1175085,0.0013192881315597094,0.002283711727648897,0
389.64,-3.515625e-5,-0.1314981,0.1135572,-4.873638354103174e-5,-8.190353428424749e-4,0
389.68,-3.125e-5,-0.1987656,0.1128083,-0.001144632612330811,-0.0014118220794285693,0
389.72,-3.125e-5,-0.1597734,0.1121853,-0.0017064881759858376,-0.0019061494476185212,0
389.76,-3.125e-5,-0.1264082,0.1107876,-0.001501288859496643,-0.003007999449761891,0
389.8,-3.515625e-5,-0.09342773,0.1151868,-5.128123364975155e-4,4.333736333562444e-4,0
389.84,-5.078125e-5,-0.07785742,0.1162117,5.8610931346689375e-5,0.0012299876507160397,0
389.88,-5.078125e-5,-0.06492383,0.113961,-2.512781409521016e-4,-5.406690365333121e-4,0
389.92,-5.46875e-5,-0.04830078,0.1146884,-0.0010149096277819463,2.286882970816912e-5,0
389.96,-4.6875e-5,-0.03573633,0.1112228,-0.0020351187080153437,-0.002700126672675408,0
390,-5.46875e-5,-0.0172793,0.1098527,-0.0024239653968098286,-0.0037810639151110294,0
390.04,-4.6875e-5,-0.006201172,0.1119759,-0.0014355562338954474,-0.002124496768188494,0
390.08,-4.6875e-5,0.006992188,0.1161864,1.7855640595381108e-4,0.0011677922601544175,0
390.12,-3.515625e-5,0.0911582,0.1167965,0.0013229564581911672,0.0016382175966650771,0
390.16,-4.296875e-5,0.009708984,0.1182829,0.0015560395493818043,0.002795758874845183,0
390.2,-3.125e-5,0.002630859,0.1147306,0.0012586981132350556,4.332206765032645e-6,0
390.24,-4.296875e-5,0.6591231,0.115204,0.0016802369383331318,3.683109261701887e-4,0
390.28,-5.078125e-5,0.3288184,0.1195677,0.002929244560782838,0.0037816239409330476,0.0034133130147628588
390.32,-5.078125e-5,-0.1700215,0.1201062,0.003789402625535059,0.00419728440204467,0.003828973475874481
390.36,-5.859375e-5,-0.1191621,0.1188523,0.004267956096445361,0.0032086974164660265,0.0028403864902958376
390.4,-6.25e-5,-0.04006445,0.1206863,0.005196211307810669,0.004640960004498153,0.004272649078327965
390.44,-7.03125e-5,0.07338086,0.1221228,0.006801971894881115,0.0057623889843288305,0.005394078058158642
390.48,-5.46875e-5,0.2338418,0.1258402,0.00888225885493821,0.008672531990245152,0.008304221064074963
390.52,-5.46875e-5,0.2553769,0.1278122,0.011193621144356547,0.010215973611426109,0.00984766268525592
390.56,-3.515625e-5,0.003978516,0.1321845,0.01346723185210347,0.01364242011737554,0.013274109191205351
390.6,-3.90625e-5,-0.1114258,0.1369597,0.014214864176598471,0.017386820219053502,0.017018509292883312
390.64,-5.859375e-5,-0.0736582,0.1302381,0.01224000038438655,0.012122599947343026,0.011754289021172837
390.68,-6.640625e-5,-0.03948828,0.1243336,0.009201604609769416,0.007500749495870289,0.007132438569700101
390.72,-6.640625e-5,-0.01924219,0.1220554,0.007114207992663292,0.005722432520282431,0.005354121594112243
390.76,-6.25e-5,-0.003441406,0.1223286,0.0059838093406406525,0.0059448452623945955,0.005576534336224407
390.8,-7.03125e-5,0.01717383,0.1204822,0.005158246214001868,0.004506822218258468,0.00413851129208828
390.84,-6.640625e-5,0.03351563,0.1195136,0.004748590427675146,0.003757543860229232,0.003389232934059043
390.88,-5.859375e-5,0.05385742,0.1204332,0.005029715143286817,0.004488858700331454,0.004120547774161266
390.92,-6.640625e-5,0.0604375,0.1232771,0.005197680277053351,0.006729177958173772,0
390.96,-6.25e-5,0.06420312,0.1199515,0.004408264951150672,0.004134812264492534,0
391,-6.25e-5,0.05993555,0.1184986,0.0031170423793810743,0.0030089502136685636,0
391.04,-7.421875e-5,0.1265332,0.1160501,0.0021071368451416324,0.0011031969717953324,0
391.08,-5.859375e-5,0.04207812,0.117761,0.0012670885769531662,0.002457818741941469,0
391.12,-6.25e-5,0.01675781,0.1145641,-4.6592859879249974e-5,-3.397939816103005e-5,0
391.16,-6.25e-5,0.6148672,0.1113321,-0.0013444894465312622,-0.002553294816663664,0
391.2,-5.859375e-5,0.35225,0.112846,-0.0020340437027185523,-0.001353105077842661,0
391.24,-4.6875e-5,-0.1774336,0.1114697,-0.0027295324229265065,-0.0024185116121485588,0
391.28,-5.46875e-5,-0.1369238,0.1090142,-0.003348222179777491,-0.0043301934119790685,0
391.32,-5.078125e-5,-0.06961719,0.1114193,-0.0036193242988357523,-0.002432747070286076,0
391.36,-5.859375e-5,0.05357422,0.1081797,-0.0037088319658843886,-0.0049600863707715305,0
391.4,-7.421875e-5,0.20375,0.1115226,-0.0035386757473532295,-0.002328745675118079,0
391.44,-6.640625e-5,0.2229727,0.1089268,-0.0031371120134224607,-0.00435261585536186,0
391.48,-5.859375e-5,-0.0274375,0.1104464,-0.0017622310850734818,-0.0031514604948960122,0
391.52,-5.46875e-5,-0.1606387,0.1159181,8.209550591022783e-4,0.0011469130814280935,0
391.56,-5.859375e-5,-0.1384531,0.1203636,0.003134669427210613,0.004641116662236311,0
391.6,-6.25e-5,-0.1103711,0.1219456,0.003585955651882906,0.005891598466622621,0
391.64,-7.03125e-5,-0.09223437,0.1164133,0.002193765850182184,0.0015667144791438542,0
391.68,-6.640625e-5,-0.08134766,0.1143729,5.302761077788492e-4,-2.0917917322106235e-5,0
391.72,-5.46875e-5,-0.06790039,0.1139325,-7.636990763981421e-4,-3.5444935578009414e-4,0
391.76,-5.46875e-5,-0.05634375,0.1109028,-0.0018188436949739702,-0.0027175693729284143,0
391.8,-6.25e-5,-0.046,0.1120982,-0.002594364248276718,-0.0017694211127603167,0
391.84,-6.25e-5,-0.04675977,0.109946,-0.0034351735137754845,-0.0034454519277803066,0
391.88,-5.859375e-5,-0.04239258,0.1082998,-0.00413523433433119,-0.004725416389878354,0
391.92,-5.46875e-5,-0.008800781,0.1096933,-0.00449458608986029,-0.003623564156717654,0
391.96,-4.296875e-5,0.1036504,0.107117,-0.00463348391154263,-0.0056338736072164665,0
392,-6.640625e-5,-0.01143945,0.1092065,-0.004235333584207634,-0.003987947992494557,0
392.04,-5.859375e-5,-0.05552734,0.1110211,-0.0038108244630819916,-0.002558122959136664,0
392.08,-4.6875e-5,0.7724961,0.1092534,-0.004005055457250419,-0.0039365629748171795,0
392.12,-6.640625e-5,-9.960937e-5,0.1083503,-0.004268960862605174,-0.004637938078229318,0
392.16,-5.078125e-5,-0.1836738,0.1091378,-0.004111086298169238,-0.004014927708404176,8.349315463383857e-4
392.2,-5.859375e-5,-0.1248125,0.1101171,-0.0038373531917279676,-0.0032422156439275494,0.0016076436108150125
392.24,-5.859375e-5,-0.04934375,0.1085378,-0.003402913114720149,-0.004475485080405213,3.743741743373486e-4
392.28,-5.46875e-5,0.06535547,0.1118519,-0.0024906297426341016,-0.0018739401830500046,0.0029759190716925573
392.32,-5.078125e-5,0.2113789,0.1117321,-0.0012751784946794839,-0.0019642341155609493,0.0028856251391816126
392.36,-5.078125e-5,0.1875117,0.1131106,7.200291332711618e-4,-8.804479885689488e-4,0.0039694112661736135
392.4,-6.25e-5,-0.0894043,0.121715,0.0029684647487954927,0.00586696908376002,0.010716828338502581
392.44,-3.90625e-5,-0.1836836,0.1179859,0.004145854152460995,0.002948128373800428,0.0077979876285429895
392.48,-5.859375e-5,-0.156418,0.1195005,0.0052651139919638705,0.004139844816601888,0.008989704071344449
392.52,-6.25e-5,-0.1365664,0.1263646,0.006073478698554881,0.009525234257153466,0.014375093511896028
392.56,-5.859375e-5,-0.1325234,0.120377,0.004780131856263906,0.004838770625833054,0.009688629880575617
392.6,-5.46875e-5,-0.1230449,0.1168234,0.002171119324330352,0.0020608772605534495,0.006910736515296011
392.64,-5.859375e-5,-0.1183555,0.1132926,-4.4264483611699683e-4,-6.988196568934687e-4,0.004151039597849094
392.68,-4.6875e-5,-0.1226836,0.1097144,-0.0025710155772629777,-0.00349577977352424,0.001354079481218322
392.72,-4.6875e-5,-0.123291,0.1088053,-0.0038042845934191743,-0.004201210905246244,6.486483494963181e-4
392.76,-3.515625e-5,-0.1251523,0.1086722,-0.004307373996764292,-0.0042990649424536845,5.507943122888773e-4
392.8,-3.90625e-5,-0.1180742,0.1079621,-0.004277599720000736,-0.004849859254742562,0
392.84,-4.6875e-5,-0.1132422,0.1087281,-0.0034139651775982826,-0.004244429913797753,0
392.88,-2.34375e-5,-0.04553711,0.1146947,-0.0025930276952160843,4.366382683487397e-4,0
392.92,-3.515625e-5,-0.1307441,0.1102422,-0.00324677243987411,-0.0030488731628649335,0
392.96,-2.734375e-5,-0.1415469,0.1074321,-0.0045223935464812825,-0.005247528060132273,0
393,-3.125e-5,0.4174746,0.1069398,-0.004965554701297364,-0.005630284882599484,0
393.04,-4.6875e-5,0.1778027,0.1088394,-0.004667165016749642,-0.004139123373170085,0
393.08,-3.515625e-5,-0.270373,0.1077154,-0.0038767240059901964,-0.0050185590589903,0
393.12,-4.296875e-5,-0.2333887,0.1113428,-0.0024108267674310025,-0.002174567928629691,0
393.16,-3.125e-5,-0.1507227,0.1150869,-0.0011932266235643487,7.605510147014032e-4,0
393.2,-2.34375e-5,-0.02508008,0.1135745,-0.001458854446276089,-4.2433433910875e-4,0
393.24,-3.515625e-5,0.1450059,0.1085229,-0.002192024544249585,-0.004383365331849447,0
393.28,-3.90625e-5,0.1594121,0.1109263,-0.0015045858162956766,-0.002499746520250313,0
393.32,-3.515625e-5,-0.1331602,0.1149625,4.5167792619053577e-4,6.632909200360573e-4,0
393.36,-2.34375e-5,-0.2858398,0.1179841,0.002340333993044991,0.003031174245126166,0
393.4,-3.90625e-5,-0.2502207,0.1184156,0.0037128576173142036,0.003369376610824607,0
393.44,-3.125e-5,-0.2071406,0.1210541,0.004615378366386596,0.0054379911477999655,0
393.48,-1.953125e-5,-0.1751289,0.120461,0.004801217298248755,0.004974487392358663,0
393.52,-2.734375e-5,-0.1651133,0.1199963,0.004239338015243337,0.004612411095151086,0
393.56,-3.125e-5,-0.1570781,0.1185559,0.0030047472095142904,0.003486294753700702,0
393.6,-3.515625e-5,-0.1512715,0.1154434,0.001248133043622257,0.0010501116473449795,0
393.64,-2.34375e-5,-0.1385352,0.1125362,-3.525338757401141e-4,-0.001224988368067132,0
393.68,-3.125e-5,-0.1218926,0.111679,-0.0011301668412734786,-0.0018934607536341159,0
393.72,-2.34375e-5,-0.1102754,0.1127057,-0.0011506427513278553,-0.0010856027758718385,0
393.76,-2.34375e-5,-0.06799609,0.1130517,-9.679490750094639e-4,-8.11459222639812e-4,0
393.8,-3.125e-5,-0.04635742,0.1125914,-7.115433716301229e-4,-0.0011694339845985523,0
393.84,-1.953125e-5,-0.1210527,0.1153429,-6.979346984470434e-4,9.898641135073988e-4,0
393.88,-2.34375e-5,-0.1210938,0.1123351,-0.0015896744248504054,-0.0013649081356328023,0
393.92,-2.734375e-5,0.7890586,0.1099473,-0.0029492554050977514,-0.003233930535297139,0
393.96,-7.8125e-6,-0.2410391,0.1072685,-0.0034904047931555633,-0.005331553862957161,0
394,-7.8125e-6,-0.2085488,0.1097616,-0.0023394413538515616,-0.0033762055276345604,0
394.04,-1.953125e-5,-0.1298555,0.1142967,8.15302694154626e-5,1.7916018727516362e-4,0
394.08,-1.171875e-5,-0.02866992,0.1195761,0.002069620705780497,0.00431794782201276,0
394.12,-3.90625e-6,0.1238672,0.1180809,0.0023037155194918562,0.003147383158593468,0
394.16,-1.171875e-5,0.2585078,0.114983,0.001431127611967586,7.210949803137004e-4,0
394.2,-7.8125e-6,0.1443184,0.113637,0.001052804188212989,-3.3191353494626055e-4,0
394.24,-3.90625e-6,-0.1354492,0.1161273,0.0016541116636096327,0.001621975644036754,0
394.28,-1.171875e-5,-0.1708496,0.1184156,0.0022276993435958754,0.003417790308992817,0
394.32,-2.34375e-5,-0.1284629,0.1158092,0.002209346380462733,0.001377604644949569,0
394.36,-3.90625e-6,-0.08955664,0.1176195,0.0019367095914904157,0.002799512970044413,0
394.4,-7.8125e-6,-0.07132813,0.1158944,0.001199836460096322,0.0014507632768899742,0
394.44,-1.171875e-5,-0.06000391,0.1139507,-4.820928540249611e-6,-6.909930055632653e-5,0
394.48,-3.90625e-6,-0.05504297,0.1119583,-0.001096268144927816,-0.0016271445889027081,0
394.52,-1.953125e-5,-0.04603125,0.1114188,-0.0016897358138730791,-0.0020466417916176973,0
394.56,-3.90625e-6,-0.03912305,0.1114901,-0.0017512017504760114,-0.001987707906507926,0
394.6,3.90625e-6,-0.03363867,0.1122326,-0.0015012473017201934,-0.0014029911906251406,0
394.64,-7.8125e-6,-0.0268418,0.1114917,-8.119879140462251e-4,-0.0019812074542065092,0
394.68,-1.953125e-5,-0.01721289,0.1158031,2.3626608314505551e-4,0.0014003327519632588,0
394.72,-3.90625e-6,0.05317578,0.1159087,6.705174643628954e-4,0.0014855242901133834,0
394.76,3.90625e-6,-0.03052148,0.1149802,-1.0206201219139899e-5,7.604071678140015e-4,0
394.8,-3.90625e-6,-0.04338672,0.1118487,-0.0012831043058036805,-0.0016913346728817033,0
394.84,-1.171875e-5,0.5862949,0.1105787,-0.0023900792333450757,-0.002684271689336858,0
394.88,0,0.244959,0.1085888,-0.002570938275222154,-0.00424190115301543,0
394.92,-3.90625e-6,-0.1867031,0.112243,-0.0015895475853879022,-0.0013762693511693558,0
394.96,-7.8125e-6,-0.133709,0.1148704,-5.119845654875261e-4,6.843236948454122e-4,0
395,-7.8125e-6,-0.04635742,0.1144752,-4.376756584702491e-4,3.758650991248272e-4,0
395.04,0,0.07548633,0.1120221,-0.0010427109920079032,-0.0015455473632270404,0
395.08,-3.90625e-6,0.2521641,0.1131382,-0.0019122453272371527,-6.696108234650431e-4,0
395.12,-7.8125e-6,0.2635293,0.1086546,-0.002886569676026162,-0.004182909801891301,0
395.16,1.5625e-5,-0.03641797,0.1099742,-0.003365053724137329,-0.0031482332061412,0
395.2,3.90625e-6,-0.1554902,0.1087276,-0.003091649530038959,-0.004125480264499015,0
395.24,-3.90625e-6,-0.122873,0.1121794,-0.002383896470991969,-0.0014207016717061739,0
395.28,3.90625e-6,-0.08033789,0.1119714,-0.0019134689350082494,-0.0015847541769265323,0
395.32,0,-0.04398633,0.1117871,-0.0018684978020205366,-0.0017304805335900768,0
395.36,-7.8125e-6,-0.03173828,0.1106371,-0.0015971059766193487,-0.0026334104780693177,0
395.4,-1.5625e-5,-0.02385156,0.1137233,-8.576398466805992e-4,-2.163585062038613e-4,0
395.44,3.90625e-6,-0.01950195,0.1139239,-1.9277591133124518e-4,-6.1117738078272e-5,0
395.48,-1.171875e-5,-0.001277344,0.1140826,2.6084742638600694e-4,6.127152273917773e-5,0
395.52,0,0.01041211,0.1164386,2.820619702026848e-4,0.0019059475183574766,0
395.56,-1.171875e-5,0.01489844,0.1137394,-8.168019094222022e-4,-2.1141790510397233e-4,0
395.6,-1.5625e-5,0.01626953,0.1094926,-0.0023792037926729376,-0.0035418490634275754,0
395.64,-2.734375e-5,0.06144922,0.1097057,-0.003267139558051064,-0.0033771023176633534,0
395.68,-1.5625e-5,0.03626563,0.1086258,-0.0032791655660451024,-0.004226361903897498,0
395.72,-2.34375e-5,-0.003414063,0.1106662,-0.0024610948779272474,-0.0026305504799910215,0
395.76,-1.953125e-5,0.1298477,0.1135601,-0.0014498217522075619,-3.661682413325747e-4,0
395.8,-1.171875e-5,0.7855898,0.113403,-0.0011617009428647657,-4.932638930032387e-4,0
395.84,-3.90625e-6,-0.1694297,0.1107071,-0.0010838437973488483,-0.0026103873797677,0
395.88,-3.90625e-6,-0.1533477,0.1134856,-1.5732747048703303e-4,-4.37005378956314e-4,0
395.92,-7.8125e-6,-0.09069921,0.1177169,7.583770517020137e-4,0.0028750342775877595,0
395.96,-7.8125e-6,-0.006332031,0.114096,6.099979825116886e-4,3.285454512092256e-5,0
396,-1.5625e-5,0.1485664,0.1120931,8.390501275288641e-4,-0.0015411070644309776,0
396.04,-3.125e-5,0.2275078,0.1195849,0.0018691731356146161,0.0043267777801263545,0
396.08,-7.8125e-6,0.02900195,0.116713,0.00200069713365168,0.002072120718007307,0
396.12,-3.125e-5,-0.157041,0.1141294,0.0017324745247465417,4.376480521784474e-5,0
396.16,-1.5625e-5,-0.1483047,0.117531,0.002184709649828372,0.0027067063199648386,0
396.2,-2.34375e-5,-0.1199609,0.1177005,0.0026299274919011494,0.002836706299120678,0
396.24,-2.734375e-5,-0.09316797,0.1165698,0.002923035169808397,0.0019480377869950701,0
396.28,-2.734375e-5,-0.07330078,0.1204862,0.002933969069085089,0.0050156704281375765,0
396.32,-2.734375e-5,-0.06843164,0.1154789,0.0021176942040106663,0.001089563790633903,0
396.36,-1.171875e-5,-0.06332422,0.1161,9.829509040517159e-4,0.0015752544871864514,0
396.4,-1.171875e-5,-0.06278711,0.1124827,1.580198618664356e-4,-0.0012609282342568547,0
396.44,-1.953125e-5,-0.05773242,0.1135869,1.4753095828487926e-4,-3.965267925841497e-4,0
396.48,-1.5625e-5,-0.0500918,0.1159698,6.108379923614655e-4,0.0014700764774149275,0
396.52,-2.734375e-5,-0.0427207,0.1152313,5.866402628053818e-4,8.903112568047636e-4,0
396.56,-1.5625e-5,-0.03451367,0.1154412,-3.355078840357268e-4,0.0010540569387389128,0
396.6,-2.34375e-5,0.01173437,0.1110484,-0.002075513671836821,-0.0023896969709854107,0
396.64,-3.125e-5,-1.328125e-4,0.1085073,-0.0037395545716007047,-0.004382437733281038,0
396.68,-3.125e-5,-0.05482422,0.1074395,-0.004501828574462194,-0.005221075707695468,0
396.72,-1.5625e-5,0.01833008,0.1079905,-0.004217062287812003,-0.004791698229067979,0
396.76,-4.296875e-5,0.8793047,0.1109908,-0.0034329959459520575,-0.0024432789951541805,0
396.8,-2.734375e-5,-0.2167754,0.1099419,-0.0027111864210079242,-0.0032690699734480963,0
396.84,-2.734375e-5,-0.2047754,0.1124524,-0.002015142780326951,-0.001305465523919999,0
396.88,-2.34375e-5,-0.1323359,0.1133991,-0.0018524393436242838,-5.677973913445514e-4,0
396.92,-3.125e-5,-0.02953906,0.1109864,-0.002616890381796723,-0.002463367587587067,0
396.96,-4.296875e-5,0.1297617,0.1087103,-0.0034839011848126007,-0.0042522576575223705,0
397,-3.125e-5,0.2507969,0.109262,-0.0037081451635328348,-0.0038253467421760614,0
397.04,-3.515625e-5,0.09652344,0.1096653,-0.003386510319989335,-0.0035153581113730173,0
397.08,-4.296875e-5,-0.1159922,0.1102671,-0.0026416033856076046,-0.0030503373302639587,0
397.12,-3.90625e-5,-0.1131992,0.1130512,-0.0017208813863387974,-8.752784397126537e-4,0
397.16,-1.953125e-5,-0.07294531,0.1128552,-0.0011148327943257036,-0.0010362053451551572,0
397.2,-3.125e-5,-0.04517383,0.1129445,-6.569812308746125e-4,-9.736734262343259e-4,0
397.24,-4.296875e-5,-0.02203711,0.1155736,-4.643634078655534e-4,0.0010794384782444493,0
397.28,-3.515625e-5,-0.003771484,0.1128355,-0.0010831187654774459,-0.001074171893003748,0
397.32,-4.6875e-5,0.004003906,0.1107051,-0.0018403922572713656,-0.0027516274270377706,0
397.36,-4.296875e-5,0.008074219,0.1112243,-0.0017858166206876306,-0.00235272085228858,0
397.4,-5.46875e-5,0.01382617,0.1141373,-0.0014250756286891583,-7.788909060917172e-5,0
397.44,-5.859375e-5,0.02123047,0.1124252,-0.0017063492709971759,-0.0014282931417627805,0
397.48,-5.078125e-5,0.02635156,0.1103042,-0.002191400305720717,-0.003099424775087114,0
397.52,-3.90625e-5,0.03040234,0.1117424,-0.0021426817742121324,-0.0019812909525634176,0
397.56,-6.25e-5,0.03351953,0.1118773,-0.0017625642895479918,-0.0018850163260214594,0
397.6,-5.859375e-5,0.1069023,0.1120952,-0.0010614613338183804,-0.0017239827303507393,0
397.64,-5.46875e-5,0.02910156,0.1147371,4.130388273859764e-5,3.3674656306282875e-4,0
397.68,-5.46875e-5,0.007751953,0.1169348,7.791177454147509e-4,0.0020493583412761474,0
397.72,-6.25e-5,0.525836,0.1157508,4.1032125540345013e-4,0.0011116660243901105,0
397.76,-7.8125e-5,0.4472773,0.11361,-8.738630362238721e-4,-5.758050820297985e-4,0
397.8,-6.25e-5,-0.1642129,0.110997,-0.0024398759755969246,-0.0026334846420874003,0
397.84,-6.640625e-5,-0.1262891,0.1087481,-0.003597406130197516,-0.00440619299173896,0
397.88,-7.03125e-5,-0.05101172,0.1084422,-0.0037277588212445245,-0.004656644322784155,0
397.92,-6.640625e-5,0.06340039,0.1110531,-0.0029399391889554038,-0.0026215989813891246,0
397.96,-7.421875e-5,0.2280332,0.1140022,-0.002564005331911525,-3.218813652884721e-4,0
398,-7.03125e-5,0.2634199,0.1083811,-0.0029344751890218114,-0.004739667295426867,0
398.04,-7.03125e-5,0.003230469,0.1109442,-0.002716526607250794,-0.0027433016727225284,0
398.08,-6.25e-5,-0.1344121,0.1128138,-0.0019938365202628017,-0.0012909450991824022,0
398.12,-5.859375e-5,-0.1129238,0.1118098,-0.0013416582508754226,-0.0020911636505003385,0
398.16,-6.25e-5,-0.07306641,0.1143132,-4.691614059611135e-4,-1.4255914274294854e-4,0
398.2,-4.6875e-5,-0.05107031,0.1159803,1.6805689358957653e-4,0.0011505182303387482,0
398.24,-5.46875e-5,-0.02572266,0.1142191,2.653596477406457e-4,-2.4337622677448294e-4,0
398.28,-6.25e-5,-0.01901758,0.1145677,5.076991297067802e-4,1.638411290517436e-5,0
398.32,-5.078125e-5,-0.009496094,0.1160647,0.0011671560541633658,0.0011762803736865383,0
398.36,-3.515625e-5,-0.001935547,0.1178967,0.001608042051002387,0.0025989404771830198,0
398.4,-3.90625e-5,-0.0108125,0.1171357,0.0010987238972882823,0.0019895782972018682,0
398.44,-4.6875e-5,0.008058594,0.1135451,-6.779159218843878e-5,-8.373530668692297e-4,0
398.48,-5.859375e-5,-0.001521484,0.1128806,-8.851690080405163e-4,-0.0013708951194936559,0
398.52,-6.25e-5,-0.01730273,0.1133987,-0.0011857229757473717,-9.77713857198517e-4,0
398.56,-5.859375e-5,0.01250195,0.1117726,-0.0010148546257700904,-0.0022653434728228676,0
398.6,-5.078125e-5,-8.300781e-4,0.1158514,-5.215231723962858e-4,9.182562850289765e-4,0
398.64,-5.859375e-5,-0.08272461,0.1144466,-5.949633190687094e-4,-1.961277724132292e-4,0
398.68,-6.25e-5,-0.08392774,0.112388,-0.0010669401680237537,-0.0018230011569849937,0
398.72,-7.03125e-5,0.848875,0.1143905,-0.0015032461145288074,-2.6701067719317565e-4,0
398.76,-5.859375e-5,-0.2511856,0.1116692,-0.0023283910885520146,-0.0024136484337116473,0
398.8,-6.25e-5,-0.268707,0.1093921,-0.0029459541764899934,-0.004212496667808353,0
398.84,-5.078125e-5,-0.2120723,0.1103819,-0.0022324097886441785,-0.003451364399154665,0
398.88,-6.25e-5,-0.1235801,0.115481,-6.089369310926632e-4,5.301544670021899e-4,0
398.92,-3.90625e-5,0.0194707,0.1160477,6.565334115490295e-4,9.591932106819254e-4,0
398.96,-7.421875e-5,0.1469336,0.1157108,0.0016730184139294186,6.801280523950207e-4,0
399,-3.515625e-5,0.04116211,0.1185828,0.0031914746496549485,0.002916354780547585,0
399.04,-5.078125e-5,-0.2243809,0.1207638,0.0051650993600119155,0.00461142579337765,0
399.08,-3.90625e-5,-0.2798242,0.1261514,0.006602786312030352,0.008820606764277133,0
399.12,-4.6875e-5,-0.2175937,0.1241259,0.006207928615370673,0.007220680533371858,0
399.16,-6.25e-5,-0.1973691,0.1191859,0.004566029505999372,0.0033374653279140995,0
399.2,-5.078125e-5,-0.1917617,0.1185375,0.0032289223194014245,0.002818598343811091,0
399.24,-6.25e-5,-0.1838711,0.1176507,0.0024273971043630976,0.002113314949249836,0
399.28,-5.46875e-5,-0.1697187,0.1182121,0.0015016469951037311,0.0025434864176136886,0
399.32,-5.078125e-5,-0.1642227,0.1151928,-1.0197297762369857e-4,1.6745260807295606e-4,0
399.36,-5.859375e-5,-0.1467148,0.1114418,-0.0018836676878747176,-0.0027820723117363577,0
399.4,-4.6875e-5,-0.1324492,0.1106453,-0.002934307328028518,-0.0034162546874196556,0
399.44,-4.6875e-5,-0.1260898,0.1101197,-0.002978915698153678,-0.003838641044151098,0
399.48,-4.6875e-5,-0.09499804,0.112119,-0.002121956708669424,-0.002282578708581324,0
